time(s),reference current(A),current(A),cart position(m),pendulum angle(rad)
0.00768,0.0,0.234,0.0,-3.14159265
0.0112,0.047,0.104,0.0,-3.14159265
0.014912,0.094,-0.026,0.0,-3.14159265
0.018688,0.117,0.104,0.0,-3.14159265
0.022464,0.164,0.0,0.0,-3.14159265
0.026112,0.219,0.0,0.0,-3.14159265
0.02976,0.266,0.0,0.0,-3.14159265
0.033408,0.313,0.0,0.0,-3.14159265
0.037056,0.36,-0.512,0.0,-3.14159265
0.04096,0.407,0.026,0.0,-3.14159265
0.044672,0.431,0.052,0.0,-3.14159265
0.048384,0.478,-0.156,0.0,-3.14159265
0.052288,0.556,-0.13,0.0,-3.14159265
0.056192,0.603,0.0,1.8e-05,-3.14159265
0.059904,0.643,0.078,5.4e-05,-3.14159265
0.063744,0.69,-0.026,9e-05,-3.14159265
0.067584,0.737,0.26,0.000144,-3.14080725184
0.071616,0.784,0.256,0.000234,-3.14080725184
0.075584,0.831,0.338,0.00036,-3.14080725184
0.079552,0.87,0.39,0.000504,-3.14080725184
0.08352,0.917,0.256,0.000684,-3.14002185367
0.087552,0.956,0.494,0.0009,-3.14002185367
0.09152,1.027,0.468,0.00117,-3.13923645551
0.09568,1.066,0.39,0.001494,-3.13845105735
0.099776,1.105,0.572,0.001854,-3.13688026102
0.103936,1.168,0.728,0.002286,-3.13609486286
0.108224,1.207,0.442,0.002772,-3.1353094647
0.112448,1.247,0.754,0.003312,-3.13373866837
0.116672,1.286,0.598,0.003924,-3.13216787205
0.12096,1.341,0.676,0.004626,-3.13138247389
0.125184,1.372,0.768,0.005346,-3.12981167756
0.129472,1.427,0.65,0.006174,-3.12745548308
0.133696,1.458,0.754,0.007074,-3.12431389043
0.13792,1.513,0.91,0.008046,-3.1227430941
0.142208,1.545,0.754,0.00909,-3.12195769594
0.146432,1.576,0.832,0.010242,-3.11803070513
0.150784,1.615,0.806,0.01152,-3.11567451064
0.155072,1.647,0.754,0.012834,-3.11253291799
0.159424,1.686,0.832,0.014328,-3.10860592718
0.163776,1.709,0.988,0.015894,-3.10624973269
0.168064,1.749,0.768,0.017514,-3.10153734371
0.172416,1.772,0.962,0.019332,-3.09839575106
0.176768,1.803,1.014,0.021168,-3.09446876025
0.181184,1.835,1.144,0.023238,-3.08897097311
0.1856,1.85,0.884,0.025416,-3.08347318597
0.189888,1.874,1.17,0.027612,-3.08033159332
0.194368,1.898,0.884,0.030042,-3.07326300986
0.198656,1.913,1.17,0.032562,-3.06855062089
0.203072,1.937,0.832,0.035226,-3.06226743559
0.207424,1.945,1.17,0.037962,-3.05676964845
0.21184,1.96,0.988,0.04095,-3.05048646315
0.216192,1.968,1.066,0.043992,-3.04420327785
0.220608,1.984,1.456,0.047232,-3.03713469439
0.225024,1.984,1.066,0.050634,-3.03006611093
0.22944,1.992,1.222,0.054162,-3.02299752746
0.233856,1.992,1.17,0.05787,-3.01435814768
0.238272,1.992,1.43,0.061704,-3.00414797156
0.242688,1.992,1.196,0.065646,-2.99786478626
0.247104,1.992,1.024,0.069768,-2.98844000831
0.25152,1.984,1.144,0.074034,-2.97980062853
0.255936,1.976,1.118,0.078444,-2.97116124874
0.260352,1.968,0.962,0.082962,-2.96016567446
0.264704,1.96,1.024,0.08757,-2.95231169284
0.26912,1.945,1.196,0.092412,-2.93974532224
0.273536,1.921,1.326,0.097344,-2.93267673878
0.277952,1.905,1.092,0.102474,-2.92246656266
0.282432,1.882,1.144,0.10782,-2.91068559022
0.286912,1.85,1.118,0.11331,-2.89969001595
0.291456,1.835,1.144,0.118944,-2.88947983984
0.295936,1.803,1.144,0.124704,-2.87534267291
0.300416,1.772,1.014,0.130644,-2.86356170048
0.30496,1.733,1.066,0.136674,-2.8525661262
0.30944,1.701,1.014,0.142812,-2.84078515376
0.31392,1.662,1.014,0.149094,-2.82900418133
0.318464,1.631,0.78,0.155466,-2.81879400521
0.32288,1.584,0.676,0.16182,-2.80465683829
0.327296,1.545,0.884,0.16821,-2.79523206034
0.331712,1.513,0.806,0.17469,-2.78188029158
0.336128,1.443,0.65,0.181242,-2.7708847173
0.340544,1.396,0.832,0.18783,-2.7583183467
0.34496,1.341,0.572,0.194436,-2.74889356875
0.349376,1.301,0.858,0.201096,-2.73711259631
0.353792,1.247,0.65,0.207792,-2.72454622571
0.358208,1.184,0.676,0.214524,-2.71355065144
0.362624,1.129,0.832,0.221274,-2.70019888268
0.36704,1.066,0.468,0.228024,-2.69155950289
0.371456,1.027,0.78,0.234828,-2.67899313229
0.375872,0.941,0.26,0.24165,-2.66956835434
0.380224,0.87,0.572,0.248328,-2.65700198374
0.384512,0.831,0.65,0.255024,-2.64914800211
0.388864,0.76,0.494,0.261738,-2.63658163151
0.393216,0.69,0.468,0.268434,-2.62872764989
0.397504,0.619,0.728,0.275166,-2.61930287194
0.401856,0.58,0.364,0.28188,-2.60987809399
0.406208,0.478,0.676,0.288594,-2.60045331604
0.410496,0.407,0.416,0.295326,-2.59102853809
0.414848,0.36,0.442,0.30204,-2.58081836198
0.4192,0.266,0.624,0.308754,-2.57374977851
0.423552,0.188,0.598,0.315486,-2.56589579689
0.42784,0.141,0.546,0.322182,-2.55647101894
0.432192,0.047,0.078,0.32886,-2.54940243548
0.436352,-0.023,0.364,0.335268,-2.54154845385
0.440704,-0.07,0.208,0.34191,-2.53526526855
0.444992,-0.164,0.286,0.348534,-2.52819668509
0.449472,-0.219,0.546,0.355248,-2.52191349979
0.453888,-0.29,0.234,0.361908,-2.51563031449
0.458304,-0.384,0.26,0.36855,-2.50856173102
0.46272,-0.431,0.286,0.37512,-2.50306394389
0.467136,-0.533,-0.078,0.381654,-2.49756615675
0.471552,-0.603,0.052,0.388116,-2.49285376778
0.47584,-0.666,0.364,0.394398,-2.4881413788
0.48032,-0.737,0.182,0.400734,-2.48342898983
0.484736,-0.807,0.156,0.406962,-2.47950199901
0.489152,-0.87,0.052,0.413154,-2.47636040636
0.49344,-0.941,0.156,0.41913,-2.47321881371
0.497856,-1.027,-0.156,0.425124,-2.47086261923
0.502464,-1.09,-0.182,0.431244,-2.46850642474
0.507072,-1.168,-0.13,0.437274,-2.46693562841
0.51168,-1.207,-0.104,0.443178,-2.46536483209
0.516224,-1.286,-0.338,0.448956,-2.46379403576
0.520832,-1.341,-0.338,0.454608,-2.46379403576
0.52544,-1.411,-0.182,0.46008,-2.46457943393
0.529984,-1.458,-0.13,0.465462,-2.46536483209
0.534592,-1.513,-0.104,0.470664,-2.46693562841
0.5392,-1.56,-0.182,0.47574,-2.46850642474
0.543808,-1.6,-0.572,0.480618,-2.47164801739
0.548352,-1.662,-0.442,0.485352,-2.47478961004
0.55296,-1.709,-0.156,0.489888,-2.47871660085
0.557568,-1.749,-0.39,0.494244,-2.48342898983
0.562112,-1.796,-0.676,0.498402,-2.4881413788
0.56672,-1.811,-0.702,0.502362,-2.49363916594
0.571328,-1.85,-0.65,0.506142,-2.49992235124
0.575936,-1.89,-0.546,0.509688,-2.50777633286
0.58048,-1.913,-0.546,0.513054,-2.51563031449
0.585088,-1.937,-0.858,0.516168,-2.52426969428
0.589696,-1.952,-0.65,0.519084,-2.53290907406
0.594304,-1.968,-0.806,0.521766,-2.54311925018
0.598848,-1.976,-0.598,0.524196,-2.55332942629
0.603456,-1.992,-0.702,0.526446,-2.56432500056
0.608064,-1.992,-0.494,0.528426,-2.576105973
0.612608,-2.0,-0.728,0.530172,-2.5886723436
0.617216,-1.992,-0.832,0.531666,-2.60202411236
0.621824,-1.992,-0.988,0.532908,-2.61616127929
0.626432,-1.984,-0.702,0.533952,-2.63108384437
0.630976,-1.968,-0.768,0.534708,-2.64914800211
0.635584,-1.952,-0.832,0.535248,-2.66249977088
0.640192,-1.921,-0.754,0.535554,-2.67977853045
0.644736,-1.913,-0.754,0.535626,-2.70019888268
0.649344,-1.882,-0.624,0.535536,-2.71512144776
0.653952,-1.843,-0.78,0.535212,-2.73711259631
0.65856,-1.811,-0.754,0.534726,-2.75674755038
0.663104,-1.772,-0.832,0.534096,-2.77402630995
0.667712,-1.725,-0.676,0.53325,-2.79366126401
0.67232,-1.686,-0.728,0.532242,-2.8148670144
0.676928,-1.631,-0.676,0.531072,-2.83685816295
0.681472,-1.584,-0.806,0.52974,-2.86120550599
0.68608,-1.529,-0.91,0.528264,-2.88084046005
0.690688,-1.474,-0.832,0.52659,-2.90832939574
0.695232,-1.396,-0.806,0.524844,-2.92639355348
0.69984,-1.356,-0.91,0.5229,-2.95074089651
0.704448,-1.286,-0.52,0.52083,-2.97665903588
0.709056,-1.207,-0.98,0.518688,-2.99865018443
0.7136,-1.129,-0.936,0.516348,-3.02928071276
0.718208,-1.066,-0.988,0.513954,-3.05048646315
0.722816,-0.98,-0.768,0.511434,-3.07797539884
0.727296,-0.894,-0.572,0.508896,-3.10075194555
0.73184,-0.831,-0.768,0.506214,-3.12667008491
0.73632,-0.737,-0.884,0.503514,-3.15023202979
0.7408,-0.666,-0.52,0.500706,-3.18164795629
0.745344,-0.58,-0.546,0.497826,-3.20363910484
0.749824,-0.478,-0.416,0.494946,-3.22798644788
0.754368,-0.384,-0.39,0.491958,-3.25547538356
0.758848,-0.313,-0.442,0.48897,-3.28139352293
0.763328,-0.219,-0.182,0.485946,-3.30731166229
0.767872,-0.117,-0.416,0.482904,-3.33401519981
0.772352,-0.023,-0.468,0.479844,-3.35993333917
0.776768,0.047,-0.234,0.476874,-3.38349528405
0.78112,0.141,-0.312,0.473958,-3.41412581239
0.785536,0.219,-0.052,0.470988,-3.43925855359
0.789888,0.29,-0.104,0.468144,-3.4620351003
0.794304,0.407,-0.208,0.465282,-3.48402624885
0.79872,0.478,-0.078,0.462438,-3.50837359189
0.803008,0.603,-0.364,0.459702,-3.5311501386
0.807424,0.666,-0.156,0.456984,-3.55863907429
0.81184,0.737,-0.052,0.454338,-3.57984482468
0.816192,0.831,-0.026,0.451818,-3.60497756588
0.820544,0.917,-0.338,0.449352,-3.62304172361
0.82496,1.003,0.026,0.446922,-3.64660366849
0.829248,1.066,0.104,0.444654,-3.66780941888
0.833664,1.145,0.156,0.44244,-3.6882297711
0.83808,1.223,0.052,0.440298,-3.71100631781
0.842432,1.286,0.156,0.438318,-3.73064127188
0.846848,1.356,0.208,0.436428,-3.75027622594
0.851264,1.427,0.156,0.434664,-3.77069657816
0.85568,1.498,0.416,0.433026,-3.79268772671
0.860096,1.56,0.39,0.431532,-3.80839568996
0.864512,1.6,0.208,0.4302,-3.82724524586
0.868928,1.662,0.494,0.428994,-3.8453094036
0.873344,1.709,0.26,0.427986,-3.86101736685
0.87776,1.756,0.702,0.427122,-3.88143771908
0.882176,1.803,0.572,0.426456,-3.89636028416
0.886592,1.835,0.256,0.425952,-3.90892665476
0.891072,1.882,0.598,0.425628,-3.9269908125
0.895488,1.905,0.676,0.425448,-3.94191337759
0.899904,1.929,0.512,0.425412,-3.95369435003
0.90432,1.952,0.494,0.425556,-3.96390452614
0.908736,1.968,0.858,0.425826,-3.97882709123
0.913152,1.984,0.754,0.42624,-3.9898226655
0.917568,1.992,0.768,0.426816,-4.00003284161
0.921984,1.992,0.988,0.427482,-4.01259921221
0.9264,1.992,0.806,0.42831,-4.02280938833
0.930816,1.992,0.988,0.4293,-4.03223416627
0.935232,1.976,1.118,0.430416,-4.04244434239
0.939712,1.968,1.144,0.431712,-4.05186912034
0.944256,1.945,1.014,0.433206,-4.05815230564
0.948736,1.921,0.78,0.434808,-4.06600628726
0.953152,1.89,0.962,0.436518,-4.07386026889
0.957568,1.85,1.066,0.438408,-4.07935805602
0.962048,1.811,1.196,0.440496,-4.084070445
0.966592,1.78,0.806,0.44271,-4.09113902846
0.971008,1.725,1.222,0.444978,-4.09585141744
0.975488,1.67,1.066,0.447498,-4.09820761192
0.980032,1.615,1.248,0.450162,-4.1029200009
0.984512,1.56,1.066,0.452934,-4.10606159355
0.988992,1.498,1.222,0.45585,-4.10841778804
0.993536,1.427,1.066,0.458874,-4.10998858436
0.998016,1.341,0.806,0.462078,-4.11313017701
1.002432,1.262,0.884,0.465318,-4.11313017701
1.006976,1.184,0.988,0.46872,-4.11391557518
1.011456,1.129,0.768,0.472248,-4.11313017701
1.016,1.027,0.598,0.47592,-4.11234477885
1.02048,0.941,1.014,0.479646,-4.11155938069
1.025024,0.831,0.624,0.483462,-4.10998858436
1.02944,0.76,0.728,0.487296,-4.10763238988
1.033856,0.666,0.468,0.49122,-4.10527619539
1.038272,0.58,0.364,0.495198,-4.1029200009
1.042688,0.454,0.598,0.49923,-4.09977840825
1.047168,0.36,0.702,0.503334,-4.09428062111
1.051584,0.266,0.546,0.507474,-4.09113902846
1.056,0.164,0.416,0.51165,-4.08799743581
1.060416,0.07,0.234,0.515862,-4.08171425051
1.064768,-0.023,0.182,0.52002,-4.07621646338
1.069184,-0.141,0.338,0.52425,-4.07071867624
1.073728,-0.243,0.416,0.528588,-4.06443549094
1.078208,-0.337,0.104,0.532944,-4.05736690748
1.082752,-0.431,0.286,0.537264,-4.04951292585
1.087232,-0.556,0.234,0.541584,-4.04322974055
1.091776,-0.643,0.104,0.54585,-4.03537575893
1.096256,-0.737,0.052,0.550098,-4.0275217773
1.100672,-0.831,-0.026,0.554238,-4.01966779567
1.105216,-0.941,-0.256,0.558414,-4.01024301773
1.109824,-1.027,0.0,0.562608,-4.00160363794
1.11424,-1.129,0.026,0.566568,-3.99296425815
1.118784,-1.207,-0.026,0.570546,-3.98275408204
1.123392,-1.286,-0.598,0.574506,-3.97332930409
1.128064,-1.372,-0.442,0.578448,-3.96233372981
1.132736,-1.458,-0.208,0.582282,-3.95369435003
1.137408,-1.529,-0.364,0.58599,-3.94112797943
1.14208,-1.6,-0.442,0.589572,-3.93248859964
1.146816,-1.662,-0.52,0.593028,-3.91913683088
1.151488,-1.709,-0.572,0.596322,-3.91049745109
1.15616,-1.78,-0.572,0.599454,-3.89793108049
1.160832,-1.827,-0.754,0.602424,-3.88850630254
1.165504,-1.874,-0.546,0.605196,-3.87515453377
1.17024,-1.905,-1.014,0.607824,-3.86651515399
1.174976,-1.945,-0.884,0.610272,-3.85551957971
1.179648,-1.96,-0.936,0.612486,-3.84295320911
1.18432,-1.976,-0.624,0.614466,-3.83352843116
1.189056,-1.992,-0.962,0.61632,-3.82174745872
1.193728,-1.992,-0.806,0.617832,-3.80996648629
1.1984,-1.992,-0.78,0.6192,-3.8013271065
1.203072,-1.984,-0.598,0.620406,-3.78954613406
1.207808,-1.968,-0.832,0.621306,-3.77933595795
1.21248,-1.952,-1.014,0.622026,-3.76912578184
1.217216,-1.913,-0.91,0.622548,-3.75891560572
1.221888,-1.898,-0.962,0.62289,-3.74634923513
1.226624,-1.85,-0.884,0.622962,-3.7384952535
1.231296,-1.803,-0.754,0.622854,-3.72828507739
1.235968,-1.749,-1.024,0.622566,-3.71728950311
1.240768,-1.686,-0.832,0.62208,-3.70865012332
1.24544,-1.615,-0.754,0.621522,-3.69765454905
1.250112,-1.545,-0.78,0.62073,-3.68665897478
1.254784,-1.474,-0.936,0.619884,-3.67644879866
1.259456,-1.396,-1.17,0.618876,-3.66859481704
1.264256,-1.301,-0.962,0.617706,-3.65759924276
1.268928,-1.207,-0.598,0.616428,-3.64817446481
1.2736,-1.129,-0.702,0.615042,-3.63874968686
1.278336,-1.027,-0.728,0.613548,-3.62853951075
1.283008,-0.894,-0.676,0.611928,-3.61754393648
1.287616,-0.807,-0.676,0.610272,-3.60811915853
1.292224,-0.69,-0.806,0.608508,-3.59869438058
1.296768,-0.603,-0.494,0.606726,-3.58926960262
1.301376,-0.478,-0.468,0.604854,-3.57905942651
1.305984,-0.337,-0.546,0.602928,-3.5688492504
1.310592,-0.243,-0.39,0.600984,-3.55785367613
1.3152,-0.117,-0.494,0.599004,-3.54764350001
1.319808,-0.023,-0.364,0.597006,-3.5374333239
1.324288,0.094,-0.468,0.595044,-3.52800854595
1.328768,0.219,-0.364,0.5931,-3.51701297168
1.333248,0.337,-0.416,0.591174,-3.50680279556
1.337792,0.431,-0.078,0.58923,-3.49502182313
1.342208,0.58,-0.208,0.587358,-3.48402624885
1.346688,0.666,-0.338,0.585504,-3.47303067457
1.351232,0.784,-0.13,0.583686,-3.46046430398
1.355712,0.87,0.052,0.58194,-3.44868333154
1.360064,1.003,-0.156,0.580302,-3.4369023591
1.364672,1.09,0.078,0.57861,-3.42355059034
1.369088,1.184,0.026,0.577116,-3.4117696179
1.373504,1.262,0.182,0.575676,-3.3992032473
1.378048,1.372,0.13,0.57429,-3.38506608038
1.382528,1.458,0.39,0.573012,-3.37249970978
1.387072,1.545,0.256,0.571878,-3.35757714469
1.391552,1.6,0.312,0.570906,-3.33872758879
1.396096,1.67,0.546,0.570024,-3.32773201451
1.400576,1.733,0.572,0.56934,-3.30888245861
1.40512,1.796,0.182,0.568854,-3.29553068985
1.4096,1.835,0.364,0.568512,-3.27668113395
1.414144,1.882,0.754,0.568296,-3.26254396703
1.418624,1.913,0.494,0.56826,-3.24526520745
1.423168,1.952,0.754,0.568386,-3.22484485523
1.427648,1.968,0.806,0.568674,-3.20992229014
1.432192,1.992,0.91,0.569088,-3.18793114159
1.436672,1.992,0.754,0.56961,-3.1730085765
1.441216,1.992,1.066,0.57033,-3.15258822428
1.445824,1.992,0.702,0.571176,-3.13295327021
1.450304,1.976,1.014,0.572112,-3.11488911248
1.454912,1.945,0.858,0.573264,-3.09289796393
1.459392,1.921,1.066,0.574542,-3.0724776117
1.464,1.89,1.066,0.576,-3.05284265764
1.468608,1.843,1.066,0.577584,-3.03006611093
1.473216,1.78,1.118,0.579366,-3.00886036054
1.477824,1.725,1.17,0.581256,-2.98686921199
1.482432,1.662,0.91,0.583326,-2.9593802763
1.486912,1.576,1.222,0.585468,-2.94210151673
1.49152,1.513,0.91,0.58779,-2.91932497001
1.496,1.427,0.78,0.59022,-2.89733382146
1.500544,1.341,0.962,0.592722,-2.87534267291
1.505024,1.223,1.118,0.59535,-2.8525661262
1.509632,1.145,0.806,0.598122,-2.82821878316
1.514176,1.043,0.962,0.600948,-2.80544223645
1.518656,0.941,0.91,0.603846,-2.78423648606
1.523136,0.807,0.728,0.606762,-2.76067454119
1.527552,0.69,0.702,0.60975,-2.73868339264
1.531968,0.58,0.91,0.612756,-2.71669224409
1.536384,0.454,0.78,0.615852,-2.6892033084
1.5408,0.36,0.65,0.618948,-2.67192454883
1.545216,0.219,0.546,0.622062,-2.65071879844
1.549696,0.117,0.256,0.625212,-2.62794225172
1.554112,-0.023,0.702,0.628326,-2.60359490869
1.558528,-0.141,0.364,0.631476,-2.58553075095
1.563072,-0.266,0.416,0.634644,-2.56039800975
1.567552,-0.384,0.234,0.637758,-2.54311925018
1.572096,-0.533,0.13,0.640872,-2.52269889795
1.576576,-0.619,0.182,0.643896,-2.50227854573
1.58112,-0.76,0.26,0.646866,-2.4818581935
1.5856,-0.87,0.078,0.649782,-2.46143784127
1.590016,-1.003,0.312,0.652536,-2.44337368354
1.594624,-1.09,0.156,0.655326,-2.42373872948
1.599232,-1.207,-0.104,0.658026,-2.40567457174
1.603904,-1.301,-0.026,0.660654,-2.387610414
1.608512,-1.411,-0.052,0.66312,-2.37033165443
1.61312,-1.513,-0.156,0.665478,-2.35226749669
1.617792,-1.576,-0.182,0.667728,-2.33420333895
1.622528,-1.662,-0.416,0.669816,-2.32006617203
1.6272,-1.733,-0.512,0.671796,-2.30435820878
1.631872,-1.78,-0.338,0.67356,-2.28943564369
1.636544,-1.843,-0.442,0.675144,-2.27294228228
1.641216,-1.898,-0.546,0.676566,-2.26116130984
1.645952,-1.937,-0.988,0.677718,-2.2493803374
1.650624,-1.96,-0.624,0.678726,-2.2368139668
1.655296,-1.984,-0.754,0.6795,-2.2242475962
1.659968,-1.992,-0.78,0.680022,-2.21403742009
1.66464,-1.992,-0.858,0.6804,-2.20382724398
1.669376,-1.992,-0.572,0.680526,-2.19440246603
1.674048,-1.968,-0.884,0.68049,-2.18340689175
1.67872,-1.945,-0.806,0.680256,-2.17712370645
1.683392,-1.913,-0.91,0.679806,-2.17005512299
1.688064,-1.858,-0.754,0.679248,-2.15984494688
1.6928,-1.811,-0.728,0.678492,-2.15591795606
1.697472,-1.749,-1.024,0.677574,-2.15042016893
1.702208,-1.662,-0.91,0.676494,-2.14492238179
1.706944,-1.576,-0.91,0.675234,-2.13942459465
1.711616,-1.513,-0.858,0.67383,-2.13706840016
1.716288,-1.411,-0.832,0.672264,-2.13314140935
1.72096,-1.301,-0.91,0.670536,-2.13078521486
1.725632,-1.207,-0.806,0.6687,-2.12842902038
1.730368,-1.09,-1.024,0.666702,-2.12685822405
1.735104,-0.941,-0.676,0.66456,-2.12607282589
1.739712,-0.854,-0.832,0.6624,-2.12528742773
1.74432,-0.713,-0.546,0.660096,-2.12607282589
1.748928,-0.58,-0.52,0.657774,-2.12528742773
1.753536,-0.454,-0.234,0.65529,-2.12842902038
1.75808,-0.313,-0.364,0.652806,-2.12842902038
1.762688,-0.164,-0.312,0.650214,-2.13078521486
1.767296,-0.023,-0.546,0.647586,-2.13471220568
1.77184,0.07,-0.26,0.644976,-2.136283002
1.776256,0.219,-0.416,0.642384,-2.14020999281
1.7808,0.36,0.026,0.63972,-2.14413698363
1.785088,0.501,-0.078,0.637182,-2.14806397444
1.789568,0.603,0.026,0.634536,-2.15199096525
1.793856,0.737,0.0,0.632034,-2.15748875239
1.798144,0.87,-0.13,0.62955,-2.16220114136
1.802624,0.98,0.182,0.626958,-2.1676989285
1.807104,1.129,0.0,0.624474,-2.1739821138
1.811392,1.207,0.286,0.622044,-2.18105069726
1.815936,1.317,-0.156,0.619614,-2.18576308624
1.820544,1.427,0.364,0.617184,-2.1928316697
1.825024,1.529,0.416,0.614916,-2.19990025316
1.829568,1.584,0.39,0.612738,-2.20696883663
1.834048,1.67,0.494,0.610668,-2.21403742009
1.838592,1.749,0.572,0.608742,-2.22110600355
1.843072,1.811,0.676,0.606942,-2.22974538334
1.847616,1.874,0.442,0.605304,-2.23759936496
1.852096,1.913,0.52,0.603828,-2.24702414291
1.85664,1.945,0.884,0.602514,-2.25487812454
1.86112,1.976,0.728,0.601398,-2.26116130984
1.865664,1.992,0.624,0.600426,-2.27058608779
1.870208,2.0,0.65,0.59967,-2.27922546757
1.874688,1.992,0.91,0.599076,-2.2870794492
1.879232,1.976,0.91,0.598644,-2.29807502348
1.883712,1.96,0.988,0.59841,-2.30514360694
1.888256,1.913,0.832,0.598338,-2.31378298673
1.892736,1.882,0.78,0.598446,-2.32242236651
1.89728,1.827,0.91,0.598698,-2.33263254262
1.90176,1.772,1.17,0.599076,-2.34127192241
1.906368,1.686,0.884,0.599598,-2.3499113022
1.910912,1.6,0.962,0.60021,-2.36090687648
1.915392,1.529,0.91,0.600948,-2.36954625626
1.919936,1.411,0.91,0.601812,-2.37975643238
1.924416,1.317,1.17,0.602748,-2.38918121032
1.929024,1.207,0.884,0.603864,-2.39860598827
1.933504,1.09,0.728,0.605034,-2.40803076623
1.938048,0.956,0.768,0.606294,-2.42059713683
1.942464,0.831,0.728,0.607644,-2.42923651661
1.94688,0.737,0.512,0.608994,-2.43944669273
1.951296,0.58,0.494,0.610488,-2.45201306332
1.955776,0.431,0.832,0.611982,-2.46065244311
1.960192,0.29,0.65,0.613512,-2.47086261923
1.964608,0.164,0.286,0.615114,-2.48499978615
1.969024,0.0,0.39,0.616716,-2.49678075859
1.973312,-0.117,0.494,0.618282,-2.50463474021
1.977792,-0.266,0.52,0.61992,-2.51720111081
1.982336,-0.407,0.364,0.62154,-2.53055287958
1.986816,-0.533,0.312,0.623178,-2.54311925018
1.99136,-0.69,0.156,0.624762,-2.55647101894
1.99584,-0.807,0.0,0.626238,-2.57060818586
