time(s),reference current(A),current(A),cart position(m),pendulum angle(rad)
0.00768,0.0,0.156,0.0,-3.14159265
0.0112,0.117,-0.026,0.0,-3.14159265
0.01504,0.235,-0.104,0.0,-3.14159265
0.01888,0.333,0.156,1.8e-05,-3.14159265
0.022784,0.45,0.286,3.6e-05,-3.14159265
0.026688,0.568,0.26,7.2e-05,-3.14159265
0.030592,0.696,0.312,0.000144,-3.14080725184
0.03456,0.803,0.572,0.000252,-3.14080725184
0.038592,0.921,0.598,0.000414,-3.14002185367
0.04256,1.039,0.416,0.00063,-3.14002185367
0.046592,1.176,0.728,0.000918,-3.13923645551
0.050688,1.284,0.858,0.001278,-3.13845105735
0.054848,1.382,0.858,0.001746,-3.13688026102
0.059008,1.509,0.754,0.002322,-3.1353094647
0.063168,1.627,0.962,0.00297,-3.1353094647
0.067264,1.715,1.04,0.003762,-3.13216787205
0.071552,1.803,1.04,0.004716,-3.12981167756
0.075776,1.911,0.91,0.005814,-3.12824088124
0.079936,2.0,1.326,0.00702,-3.12509928859
0.08416,2.078,1.04,0.008442,-3.12117229778
0.088384,2.137,1.3,0.010062,-3.11724530696
0.092736,2.215,1.404,0.011826,-3.11410371431
0.097024,2.284,1.534,0.013824,-3.1101767235
0.101376,2.343,1.43,0.016038,-3.10467893636
0.105792,2.382,1.17,0.018468,-3.09839575106
0.110208,2.431,1.274,0.02115,-3.09289796393
0.114624,2.45,1.3,0.02403,-3.08582938046
0.11904,2.48,1.586,0.027126,-3.078760797
0.123456,2.49,1.508,0.030474,-3.07169221354
0.127872,2.5,1.508,0.034002,-3.06305283375
0.132288,2.49,1.508,0.037764,-3.05598425029
0.136704,2.48,1.612,0.041814,-3.04498867601
0.14112,2.45,1.638,0.046044,-3.03713469439
0.145536,2.431,1.43,0.050544,-3.02535372195
0.149952,2.382,1.716,0.055242,-3.01671434216
0.154368,2.343,1.69,0.060156,-3.00571876789
0.158784,2.284,1.3,0.065304,-2.99472319361
0.1632,2.196,1.612,0.07065,-2.98372761934
0.167616,2.137,1.378,0.076176,-2.9719466469
0.172032,2.039,1.196,0.0819,-2.95859487814
0.176448,1.97,1.326,0.087786,-2.94602850754
0.180864,1.872,1.404,0.093834,-2.93346213694
0.18528,1.745,1.222,0.100062,-2.91775417369
0.18976,1.627,1.066,0.106506,-2.90675859941
0.194304,1.509,1.17,0.113094,-2.89340683065
0.198784,1.382,0.988,0.119808,-2.87848426556
0.2032,1.225,0.858,0.126468,-2.8651324968
0.207616,1.088,0.858,0.1332,-2.85178072804
0.212032,0.95,0.598,0.140004,-2.83764356111
0.216384,0.803,0.546,0.146718,-2.82193559786
0.220736,0.696,0.442,0.153414,-2.81094002359
0.225024,0.48,0.624,0.160146,-2.79837365299
0.229376,0.362,0.286,0.16686,-2.78423648606
0.233728,0.205,0.156,0.173556,-2.76931392098
0.238016,0.029,0.156,0.180162,-2.75910374486
0.242304,-0.117,0.052,0.186588,-2.74653737426
0.246656,-0.235,-0.026,0.193086,-2.73554179999
0.251072,-0.421,-0.13,0.199584,-2.72297542939
0.255552,-0.568,-0.364,0.206082,-2.71197985511
0.260032,-0.754,-0.286,0.212418,-2.70098428084
0.264576,-0.892,-0.598,0.218592,-2.68763251207
0.269056,-1.068,-0.65,0.224568,-2.67977853045
0.273664,-1.196,-0.702,0.230454,-2.6703537525
0.278272,-1.362,-0.78,0.236106,-2.66249977088
0.282816,-1.48,-0.832,0.241506,-2.65228959476
0.287424,-1.627,-0.936,0.246636,-2.64600640946
0.292032,-1.764,-0.962,0.251442,-2.63972322416
0.296576,-1.872,-1.222,0.255978,-2.63422543703
0.301248,-1.98,-1.222,0.260262,-2.62951304805
0.30592,-2.088,-1.404,0.264222,-2.62480065907
0.310656,-2.186,-1.456,0.267822,-2.62165906642
0.315328,-2.264,-1.3,0.271026,-2.6200882701
0.32,-2.343,-1.404,0.27387,-2.61930287194
0.324672,-2.392,-1.456,0.2763,-2.61851747377
0.329344,-2.431,-1.482,0.278388,-2.6200882701
0.334016,-2.47,-1.404,0.280008,-2.62244446459
0.338688,-2.49,-1.378,0.281286,-2.62480065907
0.34336,-2.5,-1.456,0.282186,-2.62872764989
0.348032,-2.49,-1.536,0.282636,-2.63501083519
0.352704,-2.47,-1.43,0.282726,-2.64129402049
0.357376,-2.441,-1.404,0.282456,-2.64836260395
0.362048,-2.392,-1.196,0.281844,-2.65543118741
0.36672,-2.343,-1.586,0.280926,-2.6640705672
0.371392,-2.264,-1.066,0.279684,-2.67349534515
0.376064,-2.166,-1.248,0.278172,-2.68449091942
0.380736,-2.088,-1.326,0.276408,-2.69627189186
0.385408,-1.98,-0.91,0.274392,-2.7080528643
0.390016,-1.843,-1.222,0.272142,-2.7206192349
0.394688,-1.745,-0.858,0.269658,-2.73475640182
0.399296,-1.578,-0.962,0.26703,-2.74810817059
0.403904,-1.46,-0.728,0.264204,-2.76224533751
0.408448,-1.303,-0.884,0.261216,-2.77795330076
0.413056,-1.117,-0.676,0.258102,-2.79523206034
0.417664,-0.98,-0.676,0.254862,-2.81094002359
0.422144,-0.774,-0.364,0.251586,-2.82429179235
0.426688,-0.627,-0.364,0.24822,-2.84078515376
0.431168,-0.421,-0.39,0.244836,-2.85649311701
0.435648,-0.274,-0.234,0.24138,-2.87298647843
0.440192,-0.058,-0.026,0.237942,-2.88947983984
0.44448,0.088,0.026,0.234648,-2.90518780309
0.448704,0.235,-0.026,0.231516,-2.92403735899
0.452992,0.45,0.0,0.228312,-2.93738912775
0.457152,0.598,0.286,0.225324,-2.95231169284
0.461504,0.774,0.312,0.222318,-2.96801965609
0.465856,0.921,0.598,0.21942,-2.98686921199
0.470144,1.117,0.494,0.216702,-2.99865018443
0.47456,1.284,0.676,0.21411,-3.01357274951
0.478976,1.431,0.78,0.21168,-3.03006611093
0.483392,1.578,1.014,0.209502,-3.04498867601
0.487936,1.715,0.78,0.20754,-3.05676964845
0.492352,1.843,1.066,0.20583,-3.07326300986
0.496832,1.97,1.066,0.204408,-3.08347318597
0.501312,2.078,1.352,0.203274,-3.0976103529
0.505856,2.166,1.43,0.202428,-3.10860592718
0.510336,2.264,1.482,0.20196,-3.11960150145
0.51488,2.323,1.456,0.201816,-3.12824088124
0.51936,2.392,1.404,0.201924,-3.13923645551
0.52384,2.441,1.482,0.20241,-3.14709043714
0.528384,2.48,1.82,0.203148,-3.1541590206
0.532864,2.49,1.534,0.204138,-3.16436919671
0.537344,2.49,1.742,0.205434,-3.16908158569
0.541888,2.48,1.56,0.207018,-3.17457937283
0.546368,2.45,1.456,0.2088,-3.18243335445
0.550848,2.411,1.378,0.210888,-3.1855749471
0.555392,2.352,1.508,0.213246,-3.19028733607
0.559872,2.284,1.69,0.215784,-3.19657052137
0.564352,2.196,1.534,0.218664,-3.19657052137
0.568896,2.107,1.638,0.221688,-3.19971211402
0.573376,1.97,1.404,0.224892,-3.204424503
0.577856,1.872,1.17,0.228402,-3.20285370668
0.5824,1.696,1.274,0.232038,-3.204424503
0.58688,1.578,1.04,0.2358,-3.20756609565
0.591424,1.411,1.066,0.239778,-3.20678069749
0.595904,1.254,1.014,0.243882,-3.20520990116
0.600384,1.039,0.702,0.24804,-3.20835149381
0.6048,0.892,0.624,0.252234,-3.20599529933
0.609152,0.696,0.52,0.256428,-3.20520990116
0.613504,0.509,0.546,0.260622,-3.20599529933
0.617792,0.333,0.39,0.264852,-3.204424503
0.622144,0.117,0.182,0.269082,-3.20285370668
0.626496,-0.088,0.078,0.273258,-3.20363910484
0.63072,-0.235,-0.026,0.27729,-3.20285370668
0.635136,-0.45,-0.13,0.28143,-3.20128291035
0.63968,-0.666,-0.234,0.285534,-3.20363910484
0.64416,-0.862,-0.494,0.28953,-3.20206830851
0.648704,-1.039,-0.728,0.293364,-3.20128291035
0.653248,-1.225,-0.915,0.297054,-3.20363910484
0.657856,-1.382,-0.65,0.300546,-3.204424503
0.662464,-1.558,-0.962,0.30384,-3.20520990116
0.667008,-1.745,-1.118,0.30681,-3.20913689198
0.67168,-1.872,-1.066,0.30951,-3.21149308646
0.676352,-2.019,-1.3,0.312012,-3.21384928095
0.681088,-2.137,-1.196,0.314082,-3.22091786441
0.68576,-2.225,-1.508,0.31581,-3.22563025339
0.690432,-2.323,-1.482,0.317214,-3.23034264236
0.695104,-2.392,-1.378,0.318204,-3.23741122583
0.699776,-2.441,-1.536,0.318852,-3.24683600377
0.704448,-2.48,-1.508,0.319104,-3.25311918907
0.70912,-2.49,-1.3,0.319014,-3.26254396703
0.713792,-2.49,-1.56,0.318582,-3.27432493946
0.718464,-2.47,-1.196,0.317898,-3.28296431925
0.723136,-2.421,-1.326,0.31689,-3.29317449536
0.727808,-2.372,-1.56,0.315558,-3.30652626412
0.73248,-2.284,-1.17,0.313992,-3.31909263473
0.737152,-2.166,-1.196,0.312174,-3.330088209
0.741824,-2.078,-1.482,0.310086,-3.34343997776
0.746496,-1.931,-0.884,0.307818,-3.35757714469
0.751104,-1.784,-1.43,0.305334,-3.37014351529
0.755776,-1.627,-1.17,0.302634,-3.38585147854
0.760448,-1.46,-0.754,0.299826,-3.40155944179
0.765056,-1.254,-0.91,0.29691,-3.41491121055
0.769664,-1.068,-0.702,0.29385,-3.4306191738
0.774208,-0.862,-0.884,0.290772,-3.44240014624
0.778752,-0.696,-0.442,0.287694,-3.455751915
0.783232,-0.421,-0.39,0.284526,-3.47145987825
0.787776,-0.235,-0.13,0.281412,-3.48481164701
0.792256,0.0,-0.026,0.278352,-3.49737801761
0.796416,0.176,0.026,0.275526,-3.50994438821
0.80064,0.392,0.13,0.272718,-3.52251075881
0.804992,0.598,0.208,0.270018,-3.53350633309
0.809344,0.803,0.442,0.26739,-3.54607270369
0.813696,0.98,0.494,0.264924,-3.55942447245
0.817984,1.196,0.234,0.262638,-3.56727845408
0.8224,1.382,0.468,0.260496,-3.57827402835
0.826816,1.529,0.91,0.258588,-3.58848420446
0.831232,1.715,0.858,0.256932,-3.59790898241
0.835648,1.872,1.092,0.25551,-3.6065483622
0.840192,2.019,1.274,0.254412,-3.61440234383
0.844672,2.127,1.378,0.253602,-3.61990013096
0.849152,2.245,1.222,0.253116,-3.62618331626
0.853696,2.323,1.456,0.252954,-3.63089570524
0.858176,2.401,1.326,0.25308,-3.63482269605
0.862656,2.45,1.482,0.253584,-3.6379642887
0.8672,2.49,1.378,0.254304,-3.64189127951
0.87168,2.49,1.378,0.255366,-3.64189127951
0.876224,2.48,1.612,0.25668,-3.64267667767
0.880704,2.46,1.638,0.258264,-3.64503287216
0.885184,2.392,1.742,0.26019,-3.64189127951
0.889728,2.343,1.56,0.262278,-3.64110588135
0.894208,2.245,1.586,0.264672,-3.63953508503
0.898688,2.137,1.404,0.267318,-3.63639349238
0.903232,2.0,1.456,0.270144,-3.63325189973
0.907712,1.872,1.326,0.273222,-3.62932490891
0.912192,1.696,1.248,0.27648,-3.62461251994
0.916736,1.529,1.222,0.2799,-3.6191147328
0.921216,1.333,1.066,0.283518,-3.61440234383
0.92576,1.147,0.728,0.287208,-3.6065483622
0.930176,0.892,0.858,0.290988,-3.59869438058
0.934464,0.725,0.702,0.294768,-3.59476738976
0.938816,0.509,0.442,0.298566,-3.5876988063
0.943168,0.235,0.312,0.302454,-3.57748863019
0.947456,0.058,0.26,0.306288,-3.57277624121
0.951744,-0.147,-0.256,0.310014,-3.56570765775
0.956224,-0.421,-0.078,0.31401,-3.5562828798
0.96064,-0.598,-0.286,0.31779,-3.54921429634
0.965184,-0.862,-0.468,0.321498,-3.54136031471
0.969664,-1.068,-0.546,0.325116,-3.53272093492
0.974272,-1.284,-0.624,0.328662,-3.52643774962
0.978816,-1.46,-0.91,0.331974,-3.518583768
0.983424,-1.676,-1.066,0.335034,-3.50915899005
0.988096,-1.843,-1.092,0.33795,-3.50444660108
0.992768,-1.98,-1.118,0.34056,-3.49659261945
0.99744,-2.137,-1.3,0.342828,-3.48952403599
1.002112,-2.264,-1.352,0.344826,-3.48481164701
1.006912,-2.372,-1.378,0.346464,-3.4808846562
1.011712,-2.421,-1.612,0.347724,-3.47538686906
1.016448,-2.47,-1.43,0.348696,-3.47224527641
1.021248,-2.49,-1.792,0.349236,-3.46753288744
1.025984,-2.49,-1.248,0.349362,-3.46517669295
1.030784,-2.46,-1.586,0.3492,-3.46439129479
1.03552,-2.392,-1.378,0.34875,-3.46124970214
1.04032,-2.313,-1.352,0.34794,-3.46046430398
1.045056,-2.196,-1.066,0.346842,-3.4620351003
1.049856,-2.088,-1.066,0.345492,-3.46046430398
1.054592,-1.931,-1.092,0.343926,-3.46046430398
1.059392,-1.745,-1.066,0.34209,-3.4620351003
1.064128,-1.529,-1.014,0.340056,-3.4620351003
1.068928,-1.303,-0.806,0.337896,-3.46360589663
1.0736,-1.117,-0.806,0.33561,-3.46517669295
1.078272,-0.862,-0.546,0.333216,-3.46596209111
1.08288,-0.666,-0.494,0.330804,-3.46674748928
1.087488,-0.392,-0.468,0.328374,-3.46910368376
1.092096,-0.117,-0.026,0.325926,-3.46910368376
1.09664,0.088,0.026,0.323532,-3.46988908192
1.100864,0.333,0.156,0.321336,-3.46988908192
1.10528,0.568,0.13,0.319158,-3.46988908192
1.109696,0.803,0.364,0.31707,-3.46988908192
1.114176,1.039,0.416,0.315162,-3.46910368376
1.118656,1.254,0.494,0.313362,-3.4683182856
1.1232,1.48,0.754,0.311778,-3.46674748928
1.12768,1.676,0.936,0.310482,-3.46360589663
1.132224,1.872,0.988,0.309402,-3.45967890581
1.136704,2.0,1.118,0.308664,-3.455751915
1.141312,2.156,1.17,0.308178,-3.45103952603
1.14592,2.284,1.3,0.308052,-3.44475634073
1.150528,2.372,1.508,0.308304,-3.43847315543
1.155072,2.441,1.794,0.30879,-3.43140457196
1.15968,2.48,1.534,0.309654,-3.42197979401
1.164288,2.5,1.482,0.310734,-3.41412581239
1.168896,2.49,1.404,0.31212,-3.4054864326
1.173504,2.45,1.586,0.31383,-3.39056386751
1.178112,2.372,1.56,0.315738,-3.38349528405
1.182656,2.294,1.534,0.318006,-3.37092891345
1.187264,2.156,1.404,0.320454,-3.35443555204
1.191872,2.039,1.352,0.32319,-3.34501077409
1.19648,1.872,1.248,0.326106,-3.33087360716
1.201088,1.676,1.17,0.329292,-3.31438024575
1.205696,1.48,1.066,0.332604,-3.30102847699
1.21024,1.225,1.066,0.33606,-3.2861059119
1.214848,1.039,0.858,0.339732,-3.26882715233
1.219392,0.774,0.676,0.343332,-3.25233379091
1.223808,0.539,0.572,0.346968,-3.2358404295
1.228224,0.274,0.312,0.350622,-3.22248866074
1.23264,0.029,0.104,0.354258,-3.20756609565
1.236992,-0.274,0.052,0.357804,-3.19264353056
1.241408,-0.48,-0.104,0.36135,-3.17693556731
1.246016,-0.774,-0.234,0.36495,-3.15808601141
1.250624,-1.009,-0.546,0.368388,-3.14551964081
1.255296,-1.254,-0.52,0.3717,-3.1290262794
1.260032,-1.509,-0.91,0.374814,-3.11488911248
1.264704,-1.676,-0.962,0.377658,-3.10075194555
1.269376,-1.892,-1.066,0.380196,-3.0850439823
1.274176,-2.058,-1.092,0.382464,-3.07404840802
1.278912,-2.225,-1.17,0.384372,-3.06148203743
1.283712,-2.313,-1.456,0.385902,-3.04970106499
1.288448,-2.411,-1.508,0.387054,-3.03949088888
1.293248,-2.47,-1.378,0.387828,-3.03006611093
1.297984,-2.49,-1.144,0.388134,-3.0222121293
1.302784,-2.49,-1.56,0.388098,-3.01357274951
1.30752,-2.45,-1.456,0.38772,-3.00728956421
1.31232,-2.372,-1.326,0.386982,-3.00100637891
1.317056,-2.254,-1.092,0.385884,-2.99629398994
1.321856,-2.156,-1.04,0.384534,-2.99158160096
1.326656,-1.98,-0.962,0.382878,-2.98765461015
1.331328,-1.784,-1.3,0.381006,-2.98529841566
1.336064,-1.558,-1.066,0.378882,-2.98294222118
1.340864,-1.362,-0.832,0.376524,-2.98137142485
1.345536,-1.088,-0.806,0.374076,-2.97980062853
1.350208,-0.803,-0.65,0.371484,-2.97901523036
1.354816,-0.598,-0.572,0.368874,-2.9782298322
1.359424,-0.303,-0.494,0.366192,-2.9782298322
1.364032,0.0,-0.364,0.363528,-2.97665903588
1.368384,0.235,0.026,0.361026,-2.97587363771
1.372736,0.48,0.156,0.358578,-2.97587363771
1.377152,0.803,0.312,0.356166,-2.97508823955
1.381568,1.009,0.52,0.353898,-2.97430284139
1.386112,1.303,0.546,0.351738,-2.97273204506
1.390592,1.509,0.728,0.349794,-2.97037585057
1.395136,1.715,0.702,0.348066,-2.96880505425
1.399616,1.911,1.04,0.346572,-2.96723425792
1.404224,2.078,1.248,0.34542,-2.96252186895
1.408832,2.215,1.326,0.34452,-2.96095107262
1.41344,2.343,1.274,0.343998,-2.95623868365
1.417984,2.431,1.378,0.343836,-2.94917010019
1.422592,2.47,1.664,0.343962,-2.94602850754
1.4272,2.5,1.222,0.344412,-2.93974532224
1.431808,2.48,1.768,0.345204,-2.92874974796
1.436416,2.431,1.482,0.346212,-2.92482275715
1.441024,2.352,1.482,0.347544,-2.91696877553
1.445568,2.254,1.638,0.349092,-2.90754399757
1.450176,2.088,1.352,0.350946,-2.89733382146
1.454784,1.95,1.456,0.352908,-2.88869444168
1.459392,1.715,1.3,0.35514,-2.88084046005
1.464,1.509,0.768,0.357552,-2.87063028394
1.46848,1.284,0.936,0.360018,-2.85963470966
1.473024,0.98,1.04,0.362682,-2.85099532987
1.477504,0.754,0.754,0.365328,-2.84078515376
1.481984,0.45,0.546,0.368064,-2.82978957949
1.4864,0.205,0.338,0.370764,-2.82036480154
1.490816,-0.058,0.052,0.373392,-2.81329621808
1.495168,-0.362,-0.052,0.376002,-2.80387144013
1.499648,-0.598,-0.208,0.378594,-2.79444666217
1.504256,-0.921,-0.234,0.38106,-2.78659268055
1.508864,-1.147,-0.728,0.3834,-2.77638250444
1.513536,-1.431,-0.676,0.385524,-2.77009931914
1.518208,-1.676,-0.988,0.387414,-2.76381613384
1.522944,-1.911,-1.222,0.389016,-2.75674755038
1.52768,-2.078,-1.17,0.390294,-2.75124976324
1.53248,-2.225,-1.43,0.391266,-2.74732277243
1.537216,-2.362,-1.248,0.39186,-2.74339578161
1.542016,-2.441,-1.3,0.39204,-2.74103958712
1.546752,-2.48,-1.612,0.391878,-2.7394687908
1.551552,-2.49,-1.638,0.391446,-2.73789799447
1.556288,-2.46,-1.378,0.390618,-2.73868339264
1.561088,-2.392,-1.274,0.38943,-2.74025418896
1.565824,-2.303,-1.3,0.387954,-2.74261038345
1.570624,-2.156,-1.04,0.386208,-2.74418117977
1.575424,-1.97,-1.222,0.384156,-2.74889356875
1.58016,-1.745,-1.222,0.381834,-2.75282055956
1.58496,-1.509,-0.858,0.379296,-2.75674755038
1.589632,-1.284,-0.884,0.376614,-2.76381613384
1.594304,-1.009,-0.598,0.37377,-2.77009931914
1.598976,-0.696,-0.598,0.370818,-2.77559710628
1.603584,-0.421,-0.39,0.36783,-2.7834510879
1.608192,-0.088,-0.338,0.364824,-2.78894887504
1.612672,0.176,-0.052,0.361872,-2.79523206034
1.617152,0.509,0.026,0.35901,-2.80308604196
1.62144,0.754,0.26,0.356292,-2.80936922726
1.62592,1.068,0.494,0.353628,-2.81565241256
1.6304,1.303,0.676,0.351072,-2.82193559786
1.634944,1.578,0.728,0.348714,-2.82821878316
1.639424,1.784,0.884,0.34659,-2.83528736663
1.643968,1.98,0.936,0.344754,-2.8399997556
1.648448,2.137,1.352,0.34317,-2.84549754274
1.653056,2.303,1.326,0.341892,-2.84863913539
1.657664,2.392,1.352,0.340974,-2.8525661262
1.662272,2.46,1.586,0.340416,-2.85727851517
1.66688,2.49,1.482,0.340254,-2.8588493115
1.671424,2.49,1.326,0.34038,-2.86199090415
1.676032,2.431,1.508,0.340866,-2.86356170048
1.68064,2.352,1.404,0.341658,-2.86356170048
1.685248,2.225,1.716,0.34272,-2.86434709864
1.689856,2.088,1.248,0.343962,-2.8651324968
1.694464,1.892,1.248,0.34551,-2.86356170048
1.699008,1.627,0.936,0.347202,-2.86356170048
1.703552,1.411,0.832,0.34902,-2.86356170048
1.708032,1.117,0.884,0.351,-2.86199090415
1.712576,0.862,0.754,0.35307,-2.86042010783
1.716992,0.539,0.624,0.355158,-2.86042010783
1.721408,0.274,0.286,0.3573,-2.8588493115
1.725888,0.0,0.052,0.359424,-2.85806391334
1.730048,-0.333,0.078,0.361404,-2.85806391334
1.734464,-0.598,-0.13,0.363438,-2.85649311701
1.739072,-0.95,-0.286,0.365436,-2.85649311701
1.74368,-1.196,-0.52,0.367254,-2.85806391334
1.748352,-1.48,-0.832,0.36891,-2.85806391334
1.753024,-1.764,-0.832,0.370332,-2.85963470966
1.757696,-1.95,-1.17,0.371448,-2.86356170048
1.762496,-2.137,-1.092,0.372294,-2.8651324968
1.767232,-2.303,-1.3,0.372816,-2.87063028394
1.772032,-2.411,-1.248,0.372924,-2.87612807108
1.776832,-2.47,-1.274,0.372762,-2.88084046005
1.781568,-2.49,-1.482,0.372258,-2.88712364535
1.786368,-2.47,-1.534,0.371376,-2.89576302514
1.791104,-2.401,-1.43,0.370152,-2.90361700676
1.795904,-2.313,-1.508,0.368676,-2.9153979792
1.80064,-2.137,-1.248,0.366912,-2.92325196083
1.80544,-1.97,-0.962,0.364824,-2.9342475351
1.810112,-1.696,-1.118,0.362538,-2.94602850754
1.814912,-1.431,-0.832,0.360054,-2.95702408181
1.819584,-1.196,-0.806,0.357372,-2.97116124874
1.824256,-0.892,-0.676,0.354582,-2.98294222118
1.828864,-0.598,-0.65,0.351756,-2.99472319361
1.833472,-0.235,-0.312,0.348894,-3.0096457587
1.83808,0.088,-0.078,0.345978,-3.02142673114
1.842368,0.392,0.0,0.343314,-3.03242230541
1.846656,0.666,0.078,0.34074,-3.04655947234
1.851008,0.98,0.338,0.338202,-3.05834044478
1.855424,1.254,0.728,0.33579,-3.06697982456
1.859968,1.558,0.806,0.333504,-3.07954619516
1.864448,1.764,0.962,0.33147,-3.09054176944
1.868992,2.0,1.118,0.329706,-3.10232274188
1.873536,2.166,1.17,0.328194,-3.11096212166
1.878144,2.313,1.508,0.32706,-3.12038689961
1.882752,2.411,1.404,0.326286,-3.12981167756
1.88736,2.48,1.794,0.325872,-3.13766565919
1.891968,2.49,1.612,0.325818,-3.14316344632
1.896576,2.47,1.586,0.326142,-3.15023202979
1.90112,2.392,1.794,0.32679,-3.15494441876
1.905728,2.294,1.326,0.327762,-3.15887140958
1.910336,2.107,1.534,0.328968,-3.16279840039
1.914944,1.911,1.092,0.330408,-3.16751078936
1.919552,1.696,1.274,0.332172,-3.16908158569
1.92416,1.431,1.248,0.334044,-3.17143778018
1.928768,1.176,0.806,0.336078,-3.17615016915
1.933248,0.803,0.858,0.338238,-3.17615016915
1.937664,0.509,0.39,0.340416,-3.17615016915
1.94208,0.176,0.338,0.342612,-3.18007715996
1.94656,-0.117,0.13,0.34479,-3.18086255813
1.95104,-0.45,-0.078,0.347022,-3.18164795629
1.955584,-0.774,-0.208,0.34911,-3.18321875261
1.960192,-1.117,-0.468,0.351126,-3.18478954894
1.964864,-1.362,-0.624,0.353016,-3.18714574342
1.969536,-1.647,-0.728,0.35469,-3.19028733607
1.974208,-1.911,-1.014,0.356076,-3.19421432689
1.979008,-2.137,-1.092,0.35721,-3.19735591954
1.983744,-2.284,-1.352,0.358038,-3.20206830851
1.988544,-2.392,-1.352,0.358488,-3.20835149381
1.99328,-2.48,-1.508,0.358614,-3.21542007728
1.99808,-2.49,-1.586,0.358398,-3.22248866074
2.00288,-2.47,-1.43,0.35784,-3.23034264236
2.007616,-2.382,-1.378,0.356958,-3.23898202215
2.012416,-2.245,-1.378,0.35577,-3.24683600377
2.017152,-2.039,-1.04,0.35433,-3.25704617989
2.021952,-1.823,-1.222,0.35262,-3.26568555968
