time(s),reference current(A),current(A),cart position(m),pendulum angle(rad)
0.00768,0.0,0.0,0.0,-3.14159265
0.011008,0.117,0.0,0.0,-3.14159265
0.014656,0.205,0.0,0.0,-3.14159265
0.018304,0.333,0.0,0.0,-3.14159265
0.021952,0.45,0.0,0.0,-3.14159265
0.0256,0.539,0.0,0.0,-3.14159265
0.029248,0.666,0.0,0.0,-3.14159265
0.032896,0.754,0.0,0.0,-3.14159265
0.036544,0.862,0.0,0.0,-3.14159265
0.040192,0.98,0.0,0.0,-3.14159265
0.04384,1.068,0.0,0.0,-3.14159265
0.047552,1.196,0.0,0.0,-3.14159265
0.051264,1.303,0.0,0.0,-3.14159265
0.054976,1.411,1.144,5.4e-05,-3.14080725184
0.059072,1.509,1.274,0.000252,-3.13923645551
0.063232,1.627,1.3,0.000468,-3.14002185367
0.067328,1.715,1.404,0.000864,-3.14002185367
0.071488,1.803,1.508,0.00144,-3.13766565919
0.075776,1.911,1.534,0.002106,-3.13609486286
0.08,2.0,1.664,0.00297,-3.1353094647
0.084224,2.078,1.794,0.003996,-3.13059707572
0.088448,2.137,1.898,0.00522,-3.12824088124
0.092672,2.215,1.95,0.006588,-3.12667008491
0.09696,2.284,1.95,0.008136,-3.12195769594
0.101184,2.343,2.106,0.009972,-3.1164599088
0.105536,2.382,1.872,0.011952,-3.11410371431
0.109952,2.431,2.184,0.014184,-3.10860592718
0.114368,2.45,2.028,0.016758,-3.10075194555
0.118784,2.47,2.262,0.019404,-3.09682495474
0.1232,2.49,2.158,0.022356,-3.09054176944
0.127616,2.5,2.314,0.025542,-3.08111699149
0.132032,2.49,2.314,0.028926,-3.07404840802
0.136448,2.48,2.262,0.032562,-3.06776522273
0.140864,2.46,2.236,0.036414,-3.05676964845
0.14528,2.431,2.34,0.040518,-3.04813026866
0.149696,2.392,2.288,0.044784,-3.04027628704
0.154112,2.343,2.158,0.04932,-3.02692451827
0.158528,2.284,2.21,0.05409,-3.01828513849
0.162944,2.196,2.184,0.059004,-3.00728956421
0.16736,2.137,2.028,0.064152,-2.99629398994
0.171776,2.058,2.054,0.069552,-2.98372761934
0.176192,1.97,1.82,0.075042,-2.97430284139
0.180608,1.872,1.742,0.080712,-2.96173647079
0.185024,1.745,1.56,0.08658,-2.94524310938
0.18944,1.627,1.716,0.092556,-2.93503293326
0.193856,1.529,1.534,0.098676,-2.92246656266
0.198272,1.382,1.3,0.104886,-2.90675859941
0.202752,1.284,1.326,0.111294,-2.89576302514
0.207296,1.088,1.274,0.11781,-2.88241125638
0.211776,0.98,0.884,0.124362,-2.86827408945
0.216128,0.803,0.962,0.130752,-2.85492232069
0.220416,0.696,0.78,0.137124,-2.84314134825
0.224768,0.539,0.468,0.143514,-2.83057497765
0.22912,0.362,0.624,0.14994,-2.81643781073
0.233408,0.205,0.468,0.156294,-2.80465683829
0.23776,0.058,0.078,0.16263,-2.79287586585
0.24192,-0.117,0.078,0.16866,-2.77795330076
0.246272,-0.235,0.0,0.174816,-2.76695772649
0.250496,-0.392,-0.104,0.180792,-2.7583183467
0.25504,-0.568,-0.468,0.187002,-2.74653737426
0.25952,-0.725,-0.468,0.193032,-2.73475640182
0.264,-0.892,-0.624,0.198936,-2.72376082755
0.268544,-1.039,-0.702,0.204624,-2.71669224409
0.273088,-1.196,-1.04,0.210222,-2.70648206798
0.277824,-1.333,-1.092,0.215694,-2.69705729003
0.282496,-1.48,-1.196,0.220896,-2.68998870656
0.287168,-1.627,-1.222,0.22581,-2.68213472494
0.29184,-1.745,-1.404,0.230472,-2.67506614147
0.296512,-1.872,-1.508,0.234774,-2.66956835434
0.301184,-1.98,-1.638,0.238752,-2.66485596536
0.305856,-2.078,-1.404,0.242388,-2.66092897455
0.310528,-2.186,-1.742,0.245682,-2.6577873819
0.3152,-2.264,-1.82,0.248616,-2.65621658558
0.319872,-2.323,-1.846,0.251136,-2.65543118741
0.324544,-2.392,-1.898,0.253314,-2.65543118741
0.329216,-2.431,-1.924,0.255096,-2.65700198374
0.333888,-2.46,-2.028,0.256482,-2.65857278006
0.33856,-2.49,-1.924,0.257508,-2.66171437271
0.343232,-2.5,-1.872,0.258084,-2.66642676169
0.347904,-2.49,-2.106,0.258282,-2.67270994699
0.352576,-2.47,-1.976,0.25812,-2.67899313229
0.357248,-2.441,-1.872,0.25758,-2.68527631759
0.36192,-2.392,-1.846,0.256734,-2.69313029921
0.366592,-2.343,-1.95,0.255564,-2.701769679
0.371264,-2.264,-1.69,0.254106,-2.71197985511
0.375936,-2.166,-1.768,0.252342,-2.72297542939
0.380672,-2.088,-1.508,0.250308,-2.7331856055
0.385344,-1.98,-1.664,0.24804,-2.7457519761
0.390016,-1.843,-1.43,0.24552,-2.75910374486
0.394688,-1.745,-1.482,0.242784,-2.77245551363
0.39936,-1.578,-1.326,0.239832,-2.78580728239
0.404032,-1.431,-1.144,0.236682,-2.80072984747
0.408704,-1.303,-1.118,0.233388,-2.81565241256
0.413376,-1.117,-0.962,0.229968,-2.8337165703
0.417984,-0.95,-0.832,0.226458,-2.84942453355
0.422464,-0.774,-0.754,0.222948,-2.86277630231
0.426944,-0.568,-0.624,0.219384,-2.8776988674
0.431488,-0.421,-0.364,0.21573,-2.89497762698
0.435968,-0.235,-0.26,0.212112,-2.91147098839
0.440512,-0.058,-0.156,0.208494,-2.9279643498
0.444928,0.147,0.0,0.20493,-2.94367231305
0.449088,0.303,0.13,0.201672,-2.9593802763
0.453376,0.45,0.26,0.198324,-2.97430284139
0.457728,0.598,0.364,0.195048,-2.99315239729
0.46208,0.803,0.39,0.191916,-3.00571876789
0.466432,0.98,0.65,0.188892,-3.02299752746
0.47072,1.117,0.754,0.185994,-3.03634929623
0.475136,1.303,0.884,0.183258,-3.05284265764
0.479552,1.431,1.04,0.180702,-3.06462363008
0.484096,1.607,1.118,0.178326,-3.078760797
0.488576,1.715,1.3,0.176202,-3.09211256576
0.493056,1.892,1.404,0.174348,-3.10467893636
0.4976,1.98,1.456,0.1728,-3.11803070513
0.50208,2.107,1.69,0.17154,-3.12981167756
0.50656,2.196,1.794,0.170658,-3.13923645551
0.511104,2.284,1.898,0.170028,-3.15101742795
0.515584,2.352,1.898,0.169758,-3.1604422059
0.520064,2.411,2.002,0.169866,-3.16751078936
0.524608,2.45,2.08,0.170118,-3.17850636364
0.529088,2.48,2.028,0.170766,-3.18478954894
0.533632,2.49,2.236,0.171702,-3.18950193791
0.538112,2.49,2.262,0.172854,-3.19735591954
0.542592,2.48,2.158,0.174348,-3.20285370668
0.547136,2.441,2.21,0.176058,-3.20678069749
0.551616,2.401,2.34,0.178128,-3.20992229014
0.556096,2.343,2.054,0.18036,-3.21542007728
0.56064,2.264,2.184,0.182862,-3.2169908736
0.56512,2.166,2.08,0.185706,-3.21856166993
0.5696,2.078,1.872,0.188604,-3.22248866074
0.574144,1.95,1.846,0.191862,-3.22248866074
0.578624,1.843,1.742,0.195282,-3.22248866074
0.583104,1.676,1.586,0.19881,-3.22405945706
0.587648,1.529,1.482,0.202644,-3.22405945706
0.592128,1.362,1.326,0.206514,-3.22248866074
0.596608,1.196,1.144,0.210546,-3.22170326258
0.601152,1.009,0.962,0.214722,-3.22091786441
0.605568,0.862,0.884,0.218826,-3.21856166993
0.60992,0.627,0.78,0.222984,-3.21777627176
0.614208,0.45,0.65,0.227124,-3.21620547544
0.61856,0.303,0.442,0.2313,-3.21384928095
0.622912,0.058,0.234,0.235476,-3.21227848463
0.627136,-0.117,0.0,0.239472,-3.21149308646
0.631424,-0.303,-0.156,0.243468,-3.20913689198
0.635904,-0.45,-0.208,0.247608,-3.20835149381
0.640384,-0.696,-0.26,0.251604,-3.20756609565
0.644928,-0.892,-0.52,0.255528,-3.20599529933
0.649408,-1.068,-0.754,0.259272,-3.20599529933
0.654016,-1.284,-0.832,0.262854,-3.20520990116
0.658624,-1.431,-0.962,0.266274,-3.20599529933
0.663168,-1.607,-1.196,0.269406,-3.20599529933
0.66784,-1.745,-1.508,0.27234,-3.20678069749
0.672512,-1.911,-1.378,0.274986,-3.20992229014
0.677184,-2.039,-1.586,0.277308,-3.21149308646
0.68192,-2.166,-1.638,0.27927,-3.21542007728
0.686592,-2.254,-1.846,0.280926,-3.22013246625
0.691264,-2.343,-1.794,0.282204,-3.22484485523
0.695936,-2.411,-1.898,0.28305,-3.23034264236
0.700608,-2.45,-1.924,0.283572,-3.23819662399
0.70528,-2.48,-1.898,0.283716,-3.24605060561
0.709952,-2.5,-2.054,0.283464,-3.25311918907
0.714624,-2.49,-1.95,0.282906,-3.26175856886
0.719296,-2.46,-1.872,0.282024,-3.27196874498
0.723968,-2.401,-1.898,0.280836,-3.28374971741
0.72864,-2.352,-1.846,0.27936,-3.29160369904
0.733312,-2.264,-1.82,0.277614,-3.30417006964
0.737984,-2.156,-1.768,0.27558,-3.31830723656
0.742656,-2.058,-1.638,0.273366,-3.32773201451
0.747328,-1.911,-1.586,0.270882,-3.34029838511
0.752,-1.745,-1.404,0.2682,-3.35443555204
0.756672,-1.607,-1.274,0.265338,-3.36700192264
0.761408,-1.411,-1.196,0.262332,-3.38113908956
0.76608,-1.196,-0.91,0.259182,-3.39606165465
0.770624,-1.039,-0.936,0.255978,-3.40862802525
0.775232,-0.803,-0.78,0.252702,-3.42197979401
0.779712,-0.627,-0.624,0.249426,-3.43847315543
0.784256,-0.392,-0.442,0.246132,-3.44868333154
0.788736,-0.205,-0.312,0.242856,-3.4620351003
0.79328,0.058,-0.156,0.239562,-3.47617226722
0.797568,0.235,0.026,0.236502,-3.4871678415
0.801856,0.421,0.078,0.233568,-3.49894881394
0.80608,0.666,0.338,0.230688,-3.51072978638
0.810432,0.862,0.52,0.227952,-3.52251075881
0.81472,1.039,0.676,0.225342,-3.53193553676
0.8192,1.254,0.832,0.222858,-3.5437165092
0.823616,1.411,0.988,0.220608,-3.55235588899
0.828032,1.607,1.092,0.218556,-3.56099526878
0.832512,1.764,1.378,0.216756,-3.56963464856
0.836992,1.931,1.43,0.215244,-3.57748863019
0.841536,2.039,1.586,0.214038,-3.58298641733
0.846016,2.186,1.56,0.213138,-3.58926960262
0.850496,2.264,1.846,0.212562,-3.59555278792
0.85504,2.362,1.872,0.212364,-3.59869438058
0.85952,2.421,1.924,0.21249,-3.60105057506
0.864,2.47,2.132,0.21285,-3.6065483622
0.868544,2.49,2.158,0.213588,-3.6065483622
0.873024,2.49,2.132,0.214614,-3.6065483622
0.877504,2.48,2.236,0.215838,-3.60811915853
0.882048,2.441,2.158,0.217404,-3.60811915853
0.886528,2.392,2.236,0.21924,-3.60419216771
0.891072,2.303,2.21,0.221328,-3.60340676955
0.895552,2.215,1.872,0.22365,-3.60105057506
0.900032,2.078,2.054,0.226242,-3.59633818609
0.904576,1.97,1.924,0.229068,-3.59241119527
0.909056,1.803,1.742,0.232038,-3.58926960262
0.913536,1.647,1.56,0.235278,-3.58220101916
0.91808,1.46,1.456,0.238644,-3.57591783386
0.92256,1.284,1.404,0.242154,-3.57120544489
0.92704,1.039,1.144,0.245808,-3.56335146326
0.931584,0.862,0.858,0.249588,-3.55549748164
0.935872,0.666,0.676,0.253278,-3.54842889818
0.940224,0.392,0.572,0.256986,-3.54057491655
0.944576,0.205,0.256,0.260766,-3.53350633309
0.948928,-0.058,0.234,0.264528,-3.52565235146
0.953216,-0.274,-0.104,0.268254,-3.51701297168
0.95776,-0.45,-0.208,0.27207,-3.50758819373
0.96224,-0.725,-0.286,0.275796,-3.50051961026
0.966784,-0.921,-0.494,0.279414,-3.49188023048
0.971264,-1.147,-0.884,0.282888,-3.48245545252
0.975872,-1.333,-0.91,0.286254,-3.47538686906
0.980416,-1.558,-1.04,0.289386,-3.46753288744
0.985088,-1.745,-1.3,0.292356,-3.45889350765
0.989824,-1.892,-1.326,0.29502,-3.45339572051
0.994496,-2.058,-1.534,0.297414,-3.44397094256
0.999168,-2.196,-1.664,0.299484,-3.43847315543
1.00384,-2.294,-1.768,0.301212,-3.43454616461
1.008576,-2.382,-1.924,0.302598,-3.42904837748
1.013376,-2.45,-1.898,0.303642,-3.4243359885
1.018112,-2.48,-1.872,0.30429,-3.42119439585
1.022912,-2.49,-2.048,0.304542,-3.4180528032
1.027648,-2.48,-1.924,0.304488,-3.41569660871
1.032448,-2.441,-1.872,0.304002,-3.41491121055
1.037184,-2.372,-1.82,0.303246,-3.41255501606
1.041984,-2.264,-1.742,0.302202,-3.41255501606
1.04672,-2.166,-1.768,0.300834,-3.41255501606
1.05152,-2.019,-1.664,0.299214,-3.41255501606
1.056256,-1.872,-1.56,0.297396,-3.41255501606
1.061056,-1.676,-1.534,0.295272,-3.41412581239
1.065856,-1.509,-1.274,0.293022,-3.41569660871
1.070592,-1.284,-1.248,0.29061,-3.41648200687
1.075392,-1.039,-0.936,0.288054,-3.41883820136
1.080064,-0.774,-0.78,0.285462,-3.42040899769
1.084672,-0.568,-0.598,0.282888,-3.42119439585
1.08928,-0.274,-0.338,0.28026,-3.42355059034
1.093824,-0.058,-0.182,0.277668,-3.42512138666
1.098368,0.205,-0.078,0.275184,-3.42512138666
1.102784,0.421,0.0,0.272754,-3.42747758115
1.107072,0.725,0.312,0.270558,-3.42826297931
1.111488,0.892,0.52,0.268398,-3.42669218299
1.115904,1.088,0.728,0.2664,-3.42747758115
1.120448,1.362,0.858,0.26451,-3.42669218299
1.124928,1.578,1.118,0.26289,-3.4243359885
1.129536,1.745,1.326,0.261468,-3.42197979401
1.134144,1.931,1.378,0.260316,-3.42040899769
1.138752,2.058,1.586,0.259506,-3.41648200687
1.143296,2.215,1.768,0.259038,-3.41019882158
1.147904,2.303,1.846,0.258894,-3.4054864326
1.152512,2.392,2.054,0.259074,-3.39998864546
1.15712,2.46,2.002,0.259632,-3.39213466384
1.161728,2.49,2.184,0.26046,-3.38428068221
1.166336,2.49,2.21,0.261594,-3.37485590426
1.17088,2.47,2.08,0.262998,-3.36464572815
1.175488,2.421,2.21,0.264708,-3.35365015388
1.180096,2.323,2.106,0.266706,-3.34186918144
1.184704,2.254,2.106,0.268974,-3.33165900533
1.189312,2.107,1.976,0.271458,-3.32144882921
1.19392,1.95,1.898,0.274248,-3.30338467147
1.198528,1.784,1.742,0.277254,-3.29003290271
1.203072,1.558,1.534,0.280368,-3.28060812476
1.20768,1.382,1.482,0.283752,-3.26490016151
1.212288,1.147,1.144,0.287262,-3.24605060561
1.216896,0.921,1.092,0.290826,-3.23505503134
1.221376,0.666,0.806,0.294462,-3.21934706809
1.225856,0.421,0.624,0.298044,-3.20363910484
1.230272,0.147,0.234,0.301608,-3.18950193791
1.234688,-0.088,0.104,0.30519,-3.17143778018
1.239104,-0.362,-0.052,0.308736,-3.15808601141
1.243648,-0.598,-0.286,0.31221,-3.14394884449
1.248256,-0.892,-0.494,0.315648,-3.1290262794
1.252864,-1.088,-0.65,0.318924,-3.11174751983
1.257536,-1.362,-0.91,0.322056,-3.09996654739
1.262208,-1.578,-1.17,0.324936,-3.0850439823
1.266944,-1.823,-1.326,0.3276,-3.0724776117
1.271744,-1.97,-1.612,0.329976,-3.06069663926
1.276544,-2.127,-1.586,0.331956,-3.04813026866
1.28128,-2.264,-1.612,0.333612,-3.03634929623
1.28608,-2.382,-1.794,0.334908,-3.02692451827
1.290816,-2.441,-1.924,0.335736,-3.01828513849
1.295616,-2.48,-2.054,0.336186,-3.0096457587
1.300352,-2.49,-1.976,0.336258,-3.00100637891
1.305152,-2.47,-1.95,0.335898,-2.99472319361
1.309888,-2.421,-1.976,0.33516,-2.99001080464
1.314688,-2.343,-1.924,0.334116,-2.98529841566
1.319424,-2.215,-1.794,0.332784,-2.98137142485
1.324224,-2.058,-1.664,0.33111,-2.97980062853
1.329024,-1.872,-1.612,0.329166,-2.9782298322
1.33376,-1.696,-1.456,0.327042,-2.97508823955
1.33856,-1.46,-1.3,0.324648,-2.97430284139
1.343296,-1.196,-1.014,0.322038,-2.97430284139
1.348096,-0.95,-0.962,0.319356,-2.97273204506
1.352704,-0.725,-0.624,0.316638,-2.97351744323
1.357248,-0.392,-0.546,0.31383,-2.97508823955
1.361856,-0.176,-0.26,0.311004,-2.97430284139
1.366464,0.147,-0.104,0.308178,-2.97587363771
1.371008,0.421,0.078,0.30546,-2.97587363771
1.37536,0.696,0.39,0.30294,-2.97587363771
1.379776,0.921,0.546,0.300456,-2.97665903588
1.384192,1.176,0.702,0.298134,-2.97665903588
1.388672,1.411,1.014,0.295992,-2.97508823955
1.39328,1.647,1.144,0.293958,-2.97430284139
1.397888,1.823,1.352,0.292248,-2.97273204506
1.402496,2.019,1.482,0.29079,-2.97116124874
1.407104,2.196,1.664,0.289674,-2.96959045241
1.411712,2.294,1.794,0.2889,-2.96487806344
1.416256,2.392,1.924,0.288468,-2.96095107262
1.420864,2.46,2.002,0.288414,-2.95702408181
1.425472,2.49,2.106,0.288666,-2.95231169284
1.43008,2.49,2.262,0.289278,-2.94524310938
1.434688,2.46,2.054,0.290106,-2.94131611856
1.439296,2.392,2.054,0.29124,-2.93267673878
1.44384,2.294,2.106,0.29268,-2.92325196083
1.448448,2.156,1.976,0.2943,-2.91775417369
1.453056,1.98,1.898,0.296172,-2.9091147939
1.457664,1.823,1.638,0.298314,-2.89733382146
1.462272,1.578,1.612,0.300564,-2.89183603433
1.46688,1.382,1.404,0.303012,-2.88319665454
1.471488,1.117,1.222,0.305604,-2.8714156821
1.476032,0.803,1.014,0.30825,-2.86356170048
1.480576,0.568,0.676,0.310932,-2.85492232069
1.484992,0.274,0.442,0.313596,-2.84549754274
1.489408,0.0,0.26,0.316242,-2.83607276479
1.493696,-0.235,0.026,0.318726,-2.82900418133
1.498112,-0.539,-0.208,0.321246,-2.81879400521
1.50272,-0.803,-0.468,0.323766,-2.81172542175
1.507328,-1.117,-0.702,0.326088,-2.80465683829
1.512,-1.382,-0.91,0.328266,-2.79680285666
1.516672,-1.578,-1.144,0.330228,-2.7897342732
1.521472,-1.823,-1.274,0.331902,-2.78423648606
1.526208,-2.019,-1.378,0.333306,-2.77795330076
1.531008,-2.196,-1.612,0.334386,-2.77402630995
1.535744,-2.303,-1.768,0.335052,-2.7708847173
1.540544,-2.411,-1.846,0.33534,-2.76852852281
1.54528,-2.47,-1.872,0.335268,-2.76774312465
1.55008,-2.49,-2.002,0.33489,-2.76617232833
1.554816,-2.48,-1.924,0.334116,-2.76617232833
1.559616,-2.431,-2.054,0.332982,-2.76852852281
1.564352,-2.323,-1.846,0.331596,-2.77167011546
1.569152,-2.186,-1.924,0.32985,-2.77324091179
1.573888,-2.039,-1.69,0.327852,-2.77873869893
1.578688,-1.843,-1.456,0.325584,-2.78266568974
1.583488,-1.607,-1.378,0.323046,-2.78737807871
1.588224,-1.362,-1.144,0.320346,-2.79444666217
1.593024,-1.039,-1.014,0.31743,-2.80072984747
1.59776,-0.803,-0.936,0.314406,-2.80622763461
1.602368,-0.48,-0.572,0.311382,-2.8148670144
1.606976,-0.147,-0.338,0.308286,-2.82272099603
1.611584,0.088,-0.13,0.305244,-2.82821878316
1.616,0.421,0.052,0.302292,-2.83607276479
1.620352,0.725,0.312,0.299484,-2.84235595009
1.624768,0.921,0.624,0.296766,-2.85099532987
1.629184,1.254,0.702,0.294138,-2.85649311701
1.633728,1.48,0.988,0.29169,-2.86356170048
1.638208,1.715,1.222,0.289476,-2.86905948761
1.642816,1.911,1.378,0.287442,-2.87691346924
1.647424,2.107,1.586,0.285786,-2.88084046005
1.652032,2.264,1.638,0.284382,-2.88555284903
1.656576,2.372,1.794,0.283392,-2.890265238
1.661184,2.45,1.95,0.28269,-2.89340683065
1.665792,2.49,2.028,0.282456,-2.89576302514
1.6704,2.49,2.184,0.28251,-2.89890461779
1.675008,2.45,2.08,0.282906,-2.90047541411
1.679616,2.382,2.158,0.28368,-2.90047541411
1.68416,2.254,2.08,0.284634,-2.9028316086
1.688768,2.127,1.898,0.285912,-2.90204621044
1.693376,1.931,1.846,0.287406,-2.90126081227
1.697984,1.696,1.586,0.289044,-2.90204621044
1.702592,1.48,1.508,0.290934,-2.89969001595
1.7072,1.176,1.378,0.292986,-2.89811921963
1.711744,0.95,1.014,0.295074,-2.89811921963
1.716288,0.598,0.806,0.297252,-2.8965484233
1.720704,0.333,0.52,0.299448,-2.89419222881
1.72512,0.0,0.234,0.301572,-2.89419222881
1.729408,-0.274,0.052,0.303642,-2.89340683065
1.733824,-0.539,-0.208,0.30573,-2.89262143249
1.738432,-0.862,-0.416,0.307764,-2.89183603433
1.74304,-1.196,-0.754,0.309618,-2.89183603433
1.747712,-1.431,-0.962,0.311346,-2.89183603433
1.752384,-1.696,-1.17,0.312822,-2.89340683065
1.757184,-1.95,-1.326,0.314028,-2.89576302514
1.76192,-2.137,-1.508,0.314946,-2.89890461779
1.76672,-2.264,-1.638,0.315468,-2.90204621044
1.77152,-2.392,-1.69,0.315648,-2.90754399757
1.776256,-2.47,-1.846,0.315504,-2.91304178471
1.781056,-2.49,-1.82,0.314982,-2.91853957185
1.785792,-2.48,-1.716,0.314118,-2.92639355348
1.790592,-2.421,-1.846,0.31293,-2.9342475351
1.795328,-2.313,-1.82,0.3114,-2.94288691489
1.800128,-2.137,-1.794,0.309582,-2.95231169284
1.804864,-2.0,-1.508,0.30753,-2.96330726711
1.809664,-1.764,-1.586,0.30519,-2.97430284139
1.8144,-1.509,-1.3,0.302616,-2.98529841566
1.8192,-1.196,-1.196,0.29988,-2.99865018443
1.823936,-0.892,-0.78,0.297018,-3.01043115686
1.828544,-0.598,-0.702,0.29412,-3.02299752746
1.833152,-0.235,-0.468,0.29124,-3.03399310174
1.83776,0.058,-0.104,0.288324,-3.0473448705
1.842176,0.392,0.026,0.285534,-3.0599112411
1.846528,0.666,0.208,0.282924,-3.07090681538
1.850944,0.98,0.52,0.28035,-3.08425858414
1.855424,1.254,0.78,0.277902,-3.09446876025
1.859904,1.509,0.988,0.275634,-3.10624973269
1.864448,1.764,1.17,0.273636,-3.11410371431
1.868992,2.0,1.456,0.2718,-3.12588468675
1.8736,2.166,1.716,0.270324,-3.13452406654
1.878208,2.313,1.742,0.269172,-3.14237804816
1.882816,2.411,1.924,0.268398,-3.15180282611
1.887424,2.48,1.924,0.26802,-3.15730061325
1.892032,2.49,2.106,0.267984,-3.16593999304
1.896576,2.47,2.08,0.268362,-3.17065238201
1.901184,2.392,2.106,0.2691,-3.17222317834
1.905792,2.294,2.08,0.27009,-3.1792917618
1.9104,2.107,2.028,0.271332,-3.18243335445
1.915008,1.911,1.768,0.272916,-3.18243335445
1.919616,1.696,1.586,0.274662,-3.1855749471
1.924224,1.431,1.43,0.276588,-3.18793114159
1.928768,1.176,1.3,0.278766,-3.18714574342
1.933376,0.803,0.962,0.280962,-3.18950193791
1.937792,0.509,0.702,0.283212,-3.19028733607
1.942272,0.176,0.468,0.285534,-3.18950193791
1.946688,-0.117,0.0,0.287766,-3.19107273424
1.95104,-0.45,-0.078,0.289944,-3.19264353056
1.95552,-0.774,-0.364,0.292176,-3.1918581324
1.960128,-1.117,-0.624,0.294264,-3.19264353056
1.9648,-1.362,-0.884,0.29619,-3.19578512321
1.969536,-1.647,-1.092,0.2979,-3.19657052137
1.974272,-1.911,-1.326,0.29943,-3.19892671586
1.979072,-2.137,-1.534,0.3006,-3.20285370668
1.983808,-2.284,-1.716,0.301428,-3.20678069749
1.988608,-2.392,-1.82,0.301914,-3.21227848463
1.993344,-2.48,-1.898,0.302004,-3.21620547544
1.998144,-2.49,-1.924,0.301716,-3.22170326258
2.00288,-2.47,-2.002,0.30105,-3.23112804053
2.00768,-2.382,-1.976,0.300078,-3.23662582766
2.012416,-2.245,-1.82,0.298854,-3.24762140194
2.017216,-2.039,-1.768,0.297288,-3.25547538356
2.022016,-1.823,-1.612,0.295452,-3.26490016151
2.026752,-1.607,-1.404,0.293454,-3.27432493946
