time(s),reference current(A),current(A),cart position(m),pendulum angle(rad)
0.00768,0.0,-0.598,0.0,-3.14159265
0.011264,0.117,-0.598,0.0,-3.14159265
0.015168,0.235,-0.494,0.0,-3.14159265
0.019072,0.362,-0.52,0.0,-3.14159265
0.022976,0.48,-0.416,0.0,-3.14159265
0.02688,0.568,-0.338,0.0,-3.14159265
0.030784,0.696,-0.26,0.0,-3.14159265
0.034688,0.803,-0.182,0.0,-3.14159265
0.038592,0.921,0.078,0.0,-3.14159265
0.042304,1.039,0.0,0.0,-3.14159265
0.046016,1.176,0.026,0.0,-3.14159265
0.049856,1.254,0.078,0.0,-3.14159265
0.053632,1.362,0.312,0.0,-3.14159265
0.057536,1.46,0.338,0.0,-3.14159265
0.06144,1.558,0.312,0.0,-3.14159265
0.065344,1.676,0.312,0.0,-3.14159265
0.069248,1.764,0.468,0.0,-3.14159265
0.073152,1.872,0.39,0.0,-3.14159265
0.077056,1.95,0.65,0.0,-3.14159265
0.080896,2.0,0.598,0.0,-3.14159265
0.0848,2.078,0.702,0.0,-3.14159265
0.088704,2.137,0.624,0.0,-3.14159265
0.092608,2.215,0.936,0.0,-3.14159265
0.096512,2.264,0.858,0.0,-3.14159265
0.100416,2.323,0.728,0.0,-3.14159265
0.104384,2.372,0.91,0.0,-3.14159265
0.108416,2.411,0.832,0.0,-3.14159265
0.112384,2.441,0.78,0.0,-3.14159265
0.116352,2.46,0.884,0.0,-3.14159265
0.120384,2.48,0.988,0.0,-3.14159265
0.124352,2.49,0.988,0.0,-3.14159265
0.128384,2.49,1.066,0.0,-3.14159265
0.132416,2.49,1.118,0.0,-3.14159265
0.136512,2.48,0.858,0.0,-3.14159265
0.14048,2.46,0.858,0.0,-3.14159265
0.144512,2.431,0.91,0.0,-3.14159265
0.14848,2.392,0.702,0.0,-3.14159265
0.152448,2.362,0.806,0.0,-3.14159265
0.15648,2.303,0.988,0.0,-3.14159265
0.160448,2.254,0.832,0.0,-3.14159265
0.16448,2.186,0.858,0.0,-3.14159265
0.168448,2.107,0.65,0.0,-3.14159265
0.172416,2.039,0.676,0.0,-3.14159265
0.176448,1.97,0.754,0.0,-3.14159265
0.180416,1.872,0.52,0.0,-3.14159265
0.184384,1.764,0.676,0.0,-3.14159265
0.188416,1.676,0.468,0.0,-3.14159265
0.192384,1.558,0.39,0.0,-3.14159265
0.196416,1.46,0.312,0.0,-3.14159265
0.200384,1.333,0.312,0.0,-3.14159265
0.204352,1.196,0.182,0.0,-3.14159265
0.208384,1.068,0.13,0.0,-3.14159265
0.212352,0.95,0.0,0.0,-3.14159265
0.216128,0.803,-0.104,0.0,-3.14159265
0.220096,0.696,-0.026,0.0,-3.14159265
0.224,0.539,-0.052,0.0,-3.14159265
0.227904,0.421,-0.234,0.0,-3.14159265
0.231872,0.303,-0.364,0.0,-3.14159265
0.235904,0.147,-0.468,0.0,-3.14159265
0.239872,0.0,-0.494,0.0,-3.14159265
0.243712,-0.147,-0.572,0.0,-3.14159265
0.247808,-0.303,-0.572,0.0,-3.14159265
0.25184,-0.421,-0.728,0.0,-3.14159265
0.255936,-0.598,-0.832,0.0,-3.14159265
0.260032,-0.754,-0.91,0.0,-3.14159265
0.264128,-0.892,-0.884,0.0,-3.14159265
0.26816,-1.039,-1.014,0.0,-3.14159265
0.272448,-1.176,-1.222,0.0,-3.14159265
0.276672,-1.303,-1.274,0.0,-3.14159265
0.280896,-1.431,-1.248,0.0,-3.14159265
0.285184,-1.558,-1.3,0.0,-3.14159265
0.289408,-1.676,-1.534,0.0,-3.14159265
0.293696,-1.803,-1.586,0.0,-3.14159265
0.29792,-1.931,-1.56,0.0,-3.14159265
0.302208,-2.0,-1.742,0.0,-3.14159265
0.306432,-2.088,-1.794,0.0,-3.14159265
0.310656,-2.186,-1.846,0.0,-3.14159265
0.314944,-2.264,-1.898,0.0,-3.14159265
0.319168,-2.323,-1.898,0.0,-3.14159265
0.323456,-2.372,-2.002,0.0,-3.14159265
0.32768,-2.421,-1.924,0.0,-3.14159265
0.331904,-2.45,-2.08,0.0,-3.14159265
0.336192,-2.48,-2.08,0.0,-3.14159265
0.340416,-2.49,-2.048,0.0,-3.14159265
0.344704,-2.49,-2.21,0.0,-3.14159265
0.348928,-2.49,-2.028,0.0,-3.14159265
0.353152,-2.47,-1.898,0.0,-3.14159265
0.35744,-2.441,-2.054,0.0,-3.14159265
0.361664,-2.392,-2.028,0.0,-3.14159265
0.365952,-2.343,-2.132,0.0,-3.14159265
0.370176,-2.284,-2.048,0.0,-3.14159265
0.3744,-2.215,-1.924,0.0,-3.14159265
0.378688,-2.127,-1.924,0.0,-3.14159265
0.382912,-2.019,-1.898,0.0,-3.14159265
0.3872,-1.931,-1.768,0.0,-3.14159265
0.391424,-1.823,-1.82,0.0,-3.14159265
0.395648,-1.696,-1.534,0.0,-3.14159265
0.399936,-1.558,-1.664,0.0,-3.14159265
0.40416,-1.431,-1.56,0.0,-3.14159265
0.408448,-1.303,-1.43,0.0,-3.14159265
0.412672,-1.147,-1.404,0.0,-3.14159265
0.41696,-0.98,-1.274,0.0,-3.14159265
0.42112,-0.833,-1.248,0.0,-3.14159265
0.42528,-0.666,-1.118,0.0,-3.14159265
0.42944,-0.509,-1.144,0.0,-3.14159265
0.4336,-0.362,-0.78,0.0,-3.14159265
0.437696,-0.176,-0.936,0.0,-3.14159265
0.441728,-0.029,-0.78,0.0,-3.14159265
0.44576,0.147,-0.702,0.0,-3.14159265
0.449728,0.303,-0.572,0.0,-3.14159265
0.45376,0.45,-0.39,0.0,-3.14159265
0.457728,0.598,-0.364,0.0,-3.14159265
0.461696,0.774,-0.182,0.0,-3.14159265
0.465728,0.921,-0.208,0.0,-3.14159265
0.469696,1.088,-0.052,0.0,-3.14159265
0.473664,1.225,-0.026,0.0,-3.14159265
0.477696,1.382,0.182,0.0,-3.14159265
0.481664,1.509,0.39,0.0,-3.14159265
0.485696,1.627,0.312,0.0,-3.14159265
0.489664,1.764,0.416,0.0,-3.14159265
0.493632,1.892,0.442,0.0,-3.14159265
0.497664,1.98,0.494,0.0,-3.14159265
0.501632,2.078,0.494,0.0,-3.14159265
0.505664,2.166,0.78,0.0,-3.14159265
0.509632,2.254,0.858,0.0,-3.14159265
0.5136,2.313,0.728,0.0,-3.14159265
0.517632,2.382,0.832,0.0,-3.14159265
0.5216,2.421,0.78,0.0,-3.14159265
0.525632,2.46,0.858,0.0,-3.14159265
0.5296,2.48,1.04,0.0,-3.14159265
0.533696,2.49,0.988,0.0,-3.14159265
0.537664,2.49,1.024,0.0,-3.14159265
0.54176,2.48,0.754,0.0,-3.14159265
0.545728,2.46,0.858,0.0,-3.14159265
0.54976,2.431,0.832,0.0,-3.14159265
0.553728,2.382,0.728,0.0,-3.14159265
0.557696,2.313,0.65,0.0,-3.14159265
0.561728,2.254,0.702,0.0,-3.14159265
0.565696,2.166,0.754,0.0,-3.14159265
0.569728,2.078,0.754,0.0,-3.14159265
0.573696,1.97,0.702,0.0,-3.14159265
0.577664,1.872,0.624,0.0,-3.14159265
0.581696,1.745,0.494,0.0,-3.14159265
0.585664,1.607,0.546,0.0,-3.14159265
0.589632,1.48,0.494,0.0,-3.14159265
0.593664,1.333,0.39,0.0,-3.14159265
0.597632,1.176,0.26,0.0,-3.14159265
0.601664,1.009,0.208,0.0,-3.14159265
0.605632,0.862,0.052,0.0,-3.14159265
0.609472,0.696,-0.078,0.0,-3.14159265
0.613376,0.509,-0.182,0.0,-3.14159265
0.617344,0.333,-0.26,0.0,-3.14159265
0.621376,0.147,-0.364,0.0,-3.14159265
0.625344,-0.029,-0.494,0.0,-3.14159265
0.629312,-0.205,-0.546,0.0,-3.14159265
0.633408,-0.392,-0.728,0.0,-3.14159265
0.637504,-0.539,-0.858,0.0,-3.14159265
0.6416,-0.725,-0.884,0.0,-3.14159265
0.645632,-0.892,-1.04,0.0,-3.14159265
0.649856,-1.068,-1.118,0.0,-3.14159265
0.65408,-1.284,-1.28,0.0,-3.14159265
0.658304,-1.431,-1.352,0.0,-3.14159265
0.662592,-1.558,-1.534,0.0,-3.14159265
0.666816,-1.696,-1.482,0.0,-3.14159265
0.671104,-1.872,-1.482,0.0,-3.14159265
0.675328,-1.98,-1.794,0.0,-3.14159265
0.679552,-2.088,-1.69,0.0,-3.14159265
0.68384,-2.186,-2.048,0.0,-3.14159265
0.688064,-2.294,-1.976,0.0,-3.14159265
0.692352,-2.362,-1.768,0.0,-3.14159265
0.696576,-2.411,-2.054,0.0,-3.14159265
0.700864,-2.45,-1.95,0.0,-3.14159265
0.705088,-2.48,-1.924,0.0,-3.14159265
0.709312,-2.49,-2.106,0.0,-3.14159265
0.7136,-2.49,-1.976,0.0,-3.14159265
0.717824,-2.47,-2.132,0.0,-3.14159265
0.722112,-2.431,-2.054,0.0,-3.14159265
0.726336,-2.382,-2.08,0.0,-3.14159265
0.73056,-2.313,-1.95,0.0,-3.14159265
0.734848,-2.245,-2.002,0.0,-3.14159265
0.739072,-2.127,-1.69,0.0,-3.14159265
0.74336,-2.019,-1.898,0.0,-3.14159265
0.747584,-1.911,-1.742,0.0,-3.14159265
0.751872,-1.784,-1.768,0.0,-3.14159265
0.756096,-1.607,-1.586,0.0,-3.14159265
0.76032,-1.46,-1.404,0.0,-3.14159265
0.764608,-1.303,-1.534,0.0,-3.14159265
0.768832,-1.117,-1.404,0.0,-3.14159265
0.77312,-0.892,-1.248,0.0,-3.14159265
0.77728,-0.725,-1.04,0.0,-3.14159265
0.78144,-0.539,-1.04,0.0,-3.14159265
0.7856,-0.333,-0.832,0.0,-3.14159265
0.789696,-0.147,-0.832,0.0,-3.14159265
0.793728,0.058,-0.572,0.0,-3.14159265
0.797696,0.235,-0.468,0.0,-3.14159265
0.801664,0.421,-0.416,0.0,-3.14159265
0.805632,0.598,-0.512,0.0,-3.14159265
0.809664,0.803,-0.286,0.0,-3.14159265
0.813632,0.98,-0.078,0.0,-3.14159265
0.817536,1.176,-0.026,0.0,-3.14159265
0.821504,1.333,0.052,0.0,-3.14159265
0.825472,1.48,0.13,0.0,-3.14159265
0.82944,1.647,0.156,0.0,-3.14159265
0.833408,1.803,0.442,0.0,-3.14159265
0.83744,1.931,0.546,0.0,-3.14159265
0.841408,2.039,0.494,0.0,-3.14159265
0.845376,2.156,0.624,0.0,-3.14159265
0.849408,2.245,0.806,0.0,-3.14159265
0.853376,2.323,0.832,0.0,-3.14159265
0.857408,2.392,0.78,0.0,-3.14159265
0.861376,2.441,0.884,0.0,-3.14159265
0.865344,2.47,0.728,0.0,-3.14159265
0.869376,2.49,0.936,0.0,-3.14159265
0.873344,2.49,0.754,0.0,-3.14159265
0.877376,2.48,0.936,0.0,-3.14159265
0.881344,2.45,1.014,0.0,-3.14159265
0.88544,2.392,0.91,0.0,-3.14159265
0.889408,2.343,1.092,0.0,-3.14159265
0.893504,2.254,0.806,0.0,-3.14159265
0.897472,2.156,0.728,0.0,-3.14159265
0.901504,2.058,0.728,0.0,-3.14159265
0.905472,1.95,0.572,0.0,-3.14159265
0.90944,1.803,0.52,0.0,-3.14159265
0.913472,1.647,0.364,0.0,-3.14159265
0.91744,1.48,0.442,0.0,-3.14159265
0.921472,1.333,0.208,0.0,-3.14159265
0.92544,1.147,0.13,0.0,-3.14159265
0.929408,0.95,0.104,0.0,-3.14159265
0.933312,0.754,-0.104,0.0,-3.14159265
0.937344,0.539,-0.13,0.0,-3.14159265
0.941312,0.362,-0.26,0.0,-3.14159265
0.945344,0.147,-0.364,0.0,-3.14159265
0.949312,-0.058,-0.512,0.0,-3.14159265
0.95328,-0.274,-0.676,0.0,-3.14159265
0.957376,-0.45,-0.702,0.0,-3.14159265
0.961472,-0.666,-0.884,0.0,-3.14159265
0.965568,-0.862,-0.962,0.0,-3.14159265
0.969664,-1.068,-1.014,0.0,-3.14159265
0.973888,-1.254,-1.3,0.0,-3.14159265
0.978112,-1.46,-1.43,0.0,-3.14159265
0.9824,-1.627,-1.456,0.0,-3.14159265
0.986624,-1.784,-1.534,0.0,-3.14159265
0.990912,-1.95,-1.508,0.0,-3.14159265
0.995136,-2.078,-1.768,0.0,-3.14159265
0.99936,-2.196,-1.742,0.0,-3.14159265
1.003648,-2.294,-1.924,0.0,-3.14159265
1.008,-2.382,-2.028,0.0,-3.14159265
1.012352,-2.431,-2.054,0.0,-3.14159265
1.016704,-2.47,-2.132,0.0,-3.14159265
1.020992,-2.49,-1.95,0.0,-3.14159265
1.025344,-2.49,-1.898,0.0,-3.14159265
1.029696,-2.47,-2.08,0.0,-3.14159265
1.034048,-2.421,-1.898,0.0,-3.14159265
1.0384,-2.352,-2.132,0.0,-3.14159265
1.042752,-2.264,-1.898,0.0,-3.14159265
1.047104,-2.137,-2.028,0.0,-3.14159265
1.051456,-2.019,-1.898,0.0,-3.14159265
1.055808,-1.892,-1.924,0.0,-3.14159265
1.060096,-1.696,-1.768,0.0,-3.14159265
1.064448,-1.529,-1.69,0.0,-3.14159265
1.0688,-1.362,-1.508,0.0,-3.14159265
1.073152,-1.117,-1.248,0.0,-3.14159265
1.077504,-0.921,-1.196,0.0,-3.14159265
1.081792,-0.725,-1.04,0.0,-3.14159265
1.086016,-0.45,-1.17,0.0,-3.14159265
1.090304,-0.235,-1.014,0.0,-3.14159265
1.094528,0.0,-0.728,0.0,-3.14159265
1.098496,0.205,-0.806,0.0,-3.14159265
1.102528,0.421,-0.512,0.0,-3.14159265
1.106624,0.666,-0.416,0.0,-3.14159265
1.11072,0.862,-0.364,0.0,-3.14159265
1.114816,1.039,-0.104,0.0,-3.14159265
1.118976,1.303,0.026,0.0,-3.14159265
1.123008,1.48,0.364,0.0,-3.14159265
1.127104,1.676,0.39,0.0,-3.14159265
1.131136,1.823,0.256,0.0,-3.14159265
1.135232,1.97,0.598,0.0,-3.14159265
1.139328,2.088,0.624,0.0,-3.14159265
1.143424,2.215,0.728,0.0,-3.14159265
1.14752,2.303,0.754,0.0,-3.14159265
1.151616,2.382,0.754,0.0,-3.14159265
1.155712,2.441,0.962,0.0,-3.14159265
1.159744,2.48,0.91,0.0,-3.14159265
1.16384,2.49,0.91,0.0,-3.14159265
1.167936,2.49,0.91,0.0,-3.14159265
1.172032,2.46,0.78,0.0,-3.14159265
1.176128,2.401,0.754,0.0,-3.14159265
1.180224,2.323,0.858,0.0,-3.14159265
1.18432,2.254,0.78,0.0,-3.14159265
1.188416,2.137,0.65,0.0,-3.14159265
1.192448,2.0,0.78,0.0,-3.14159265
1.196544,1.872,0.702,0.0,-3.14159265
1.20064,1.696,0.364,0.0,-3.14159265
1.204736,1.529,0.468,0.0,-3.14159265
1.208832,1.362,0.182,0.0,-3.14159265
1.212928,1.088,0.364,0.0,-3.14159265
1.217024,0.862,0.182,0.0,-3.14159265
1.220992,0.666,0.052,0.0,-3.14159265
1.224896,0.48,-0.312,0.0,-3.14159265
1.228992,0.205,-0.208,0.0,-3.14159265
1.233088,-0.029,-0.546,0.0,-3.14159265
1.237184,-0.274,-0.468,0.0,-3.14159265
1.241344,-0.48,-0.78,0.0,-3.14159265
1.245568,-0.725,-0.832,0.0,-3.14159265
1.249728,-0.95,-1.222,0.0,-3.14159265
1.253952,-1.196,-1.326,0.0,-3.14159265
1.258304,-1.411,-1.43,0.0,-3.14159265
1.262656,-1.578,-1.456,0.0,-3.14159265
1.267008,-1.823,-1.586,0.0,-3.14159265
1.27136,-1.97,-1.69,0.0,-3.14159265
1.275712,-2.088,-1.846,0.0,-3.14159265
1.280064,-2.254,-1.638,0.0,-3.14159265
1.284416,-2.343,-1.638,0.0,-3.14159265
1.288768,-2.411,-1.82,0.0,-3.14159265
1.293056,-2.47,-1.976,0.0,-3.14159265
1.297408,-2.49,-2.002,0.0,-3.14159265
1.30176,-2.49,-2.08,0.0,-3.14159265
1.306112,-2.46,-2.106,0.0,-3.14159265
1.310464,-2.401,-1.976,0.0,-3.14159265
1.314816,-2.343,-2.054,0.0,-3.14159265
1.319168,-2.215,-1.976,0.0,-3.14159265
1.32352,-2.078,-1.742,0.0,-3.14159265
1.327872,-1.95,-1.768,0.0,-3.14159265
1.332224,-1.745,-1.586,0.0,-3.14159265
1.336512,-1.558,-1.664,0.0,-3.14159265
1.340864,-1.362,-1.536,0.0,-3.14159265
1.345216,-1.088,-1.404,0.0,-3.14159265
1.349568,-0.862,-1.274,0.0,-3.14159265
1.353856,-0.627,-1.092,0.0,-3.14159265
1.35808,-0.362,-0.832,0.0,-3.14159265
1.362304,-0.117,-0.728,0.0,-3.14159265
1.366464,0.147,-0.676,0.0,-3.14159265
1.37056,0.392,-0.52,0.0,-3.14159265
1.374656,0.598,-0.364,0.0,-3.14159265
1.378688,0.833,-0.208,0.0,-3.14159265
1.382784,1.068,0.0,0.0,-3.14159265
1.386688,1.303,0.156,0.0,-3.14159265
1.390784,1.509,0.078,0.0,-3.14159265
1.394816,1.676,0.442,0.0,-3.14159265
1.398912,1.911,0.572,0.0,-3.14159265
1.403008,2.058,0.676,0.0,-3.14159265
1.407104,2.196,0.676,0.0,-3.14159265
1.411136,2.294,0.702,0.0,-3.14159265
1.415232,2.382,0.91,0.0,-3.14159265
1.419328,2.45,0.832,0.0,-3.14159265
1.423424,2.48,0.988,0.0,-3.14159265
1.42752,2.5,1.014,0.0,-3.14159265
1.43168,2.48,0.962,0.0,-3.14159265
1.435776,2.45,1.014,0.0,-3.14159265
1.439936,2.362,0.832,0.0,-3.14159265
1.444032,2.284,0.858,0.0,-3.14159265
1.448128,2.156,0.858,0.0,-3.14159265
1.452224,2.019,0.832,0.0,-3.14159265
1.45632,1.872,0.676,0.0,-3.14159265
1.460352,1.676,0.52,0.0,-3.14159265
1.464448,1.509,0.468,0.0,-3.14159265
1.468544,1.284,0.364,0.0,-3.14159265
1.47264,1.068,0.26,0.0,-3.14159265
1.476736,0.803,0.0,0.0,-3.14159265
1.480576,0.568,0.0,0.0,-3.14159265
1.484416,0.333,-0.338,0.0,-3.14159265
1.488512,0.088,-0.286,0.0,-3.14159265
1.49248,-0.176,-0.468,0.0,-3.14159265
1.49664,-0.421,-0.754,0.0,-3.14159265
1.500864,-0.696,-0.962,0.0,-3.14159265
1.505024,-0.98,-0.884,0.0,-3.14159265
1.509184,-1.196,-1.17,0.0,-3.14159265
1.513536,-1.431,-1.274,0.0,-3.14159265
1.517888,-1.647,-1.378,0.0,-3.14159265
1.52224,-1.872,-1.69,0.0,-3.14159265
1.526592,-2.019,-1.664,0.0,-3.14159265
1.530944,-2.196,-1.716,0.0,-3.14159265
1.535232,-2.303,-1.924,0.0,-3.14159265
1.539584,-2.392,-1.95,0.0,-3.14159265
1.543936,-2.46,-1.898,0.0,-3.14159265
1.548288,-2.49,-2.002,0.0,-3.14159265
1.55264,-2.49,-2.002,0.0,-3.14159265
1.556992,-2.45,-1.846,0.0,-3.14159265
1.561344,-2.392,-2.054,0.0,-3.14159265
1.565696,-2.303,-1.976,0.0,-3.14159265
1.570048,-2.156,-1.95,0.0,-3.14159265
1.574336,-2.019,-1.95,0.0,-3.14159265
1.578688,-1.843,-1.742,0.0,-3.14159265
1.58304,-1.607,-1.664,0.0,-3.14159265
1.587392,-1.382,-1.508,0.0,-3.14159265
1.591744,-1.176,-1.352,0.0,-3.14159265
1.596096,-0.862,-1.274,0.0,-3.14159265
1.60032,-0.598,-1.066,0.0,-3.14159265
1.604608,-0.362,-0.806,0.0,-3.14159265
1.608768,-0.088,-0.832,0.0,-3.14159265
1.612864,0.176,-0.546,0.0,-3.14159265
1.61696,0.509,-0.442,0.0,-3.14159265
1.621056,0.754,-0.338,0.0,-3.14159265
1.625152,1.009,-0.026,0.0,-3.14159265
1.629248,1.254,0.13,0.0,-3.14159265
1.63328,1.48,0.13,0.0,-3.14159265
1.637376,1.676,0.494,0.0,-3.14159265
1.641472,1.872,0.468,0.0,-3.14159265
1.645568,2.039,0.572,0.0,-3.14159265
1.649664,2.186,0.598,0.0,-3.14159265
1.65376,2.303,0.728,0.0,-3.14159265
1.657856,2.392,0.962,0.0,-3.14159265
1.661952,2.46,1.024,0.0,-3.14159265
1.666112,2.49,0.962,0.0,-3.14159265
1.670208,2.49,1.04,0.0,-3.14159265
1.674368,2.46,0.858,0.0,-3.14159265
1.678464,2.392,1.014,0.0,-3.14159265
1.682624,2.303,0.78,0.0,-3.14159265
1.68672,2.196,0.754,0.0,-3.14159265
1.690816,2.039,0.806,0.0,-3.14159265
1.694912,1.843,0.676,0.0,-3.14159265
1.698944,1.627,0.598,0.0,-3.14159265
1.70304,1.411,0.468,0.0,-3.14159265
1.707136,1.176,0.182,0.0,-3.14159265
1.711232,0.95,0.256,0.0,-3.14159265
1.715264,0.696,0.0,0.0,-3.14159265
1.71904,0.421,-0.104,0.0,-3.14159265
1.723136,0.147,-0.416,0.0,-3.14159265
1.727232,-0.147,-0.39,0.0,-3.14159265
1.731392,-0.392,-0.884,0.0,-3.14159265
1.735616,-0.696,-0.858,0.0,-3.14159265
1.739776,-0.95,-1.014,0.0,-3.14159265
1.744,-1.254,-1.144,0.0,-3.14159265
1.748352,-1.48,-1.274,0.0,-3.14159265
1.752704,-1.696,-1.56,0.0,-3.14159265
1.757056,-1.95,-1.612,0.0,-3.14159265
1.761408,-2.088,-1.794,0.0,-3.14159265
1.76576,-2.245,-1.872,0.0,-3.14159265
1.770112,-2.372,-1.82,0.0,-3.14159265
1.774464,-2.441,-1.95,0.0,-3.14159265
1.778816,-2.48,-1.924,0.0,-3.14159265
1.783168,-2.49,-2.132,0.0,-3.14159265
1.787456,-2.46,-2.236,0.0,-3.14159265
1.791808,-2.401,-2.054,0.0,-3.14159265
1.79616,-2.284,-1.95,0.0,-3.14159265
1.800512,-2.137,-1.898,0.0,-3.14159265
1.804864,-2.0,-1.872,0.0,-3.14159265
1.809216,-1.764,-1.638,0.0,-3.14159265
1.813568,-1.558,-1.664,0.0,-3.14159265
1.81792,-1.284,-1.534,0.0,-3.14159265
1.822272,-1.009,-1.248,0.0,-3.14159265
1.826624,-0.754,-1.248,0.0,-3.14159265
1.830848,-0.45,-1.04,0.0,-3.14159265
1.835136,-0.117,-0.78,0.0,-3.14159265
1.839296,0.176,-0.768,0.0,-3.14159265
1.843392,0.45,-0.494,0.0,-3.14159265
1.847488,0.754,-0.416,0.0,-3.14159265
1.851584,0.98,-0.104,0.0,-3.14159265
1.855616,1.254,0.104,0.0,-3.14159265
1.859712,1.509,0.208,0.0,-3.14159265
1.863808,1.715,0.468,0.0,-3.14159265
1.867904,1.931,0.598,0.0,-3.14159265
1.872,2.127,0.598,0.0,-3.14159265
1.876096,2.264,0.754,0.0,-3.14159265
1.880192,2.372,0.78,0.0,-3.14159265
1.884288,2.441,0.806,0.0,-3.14159265
1.88832,2.49,0.858,0.0,-3.14159265
1.892416,2.49,1.17,0.0,-3.14159265
1.89664,2.47,0.962,0.0,-3.14159265
1.900672,2.401,0.832,0.0,-3.14159265
1.904768,2.313,0.78,0.0,-3.14159265
1.908864,2.196,0.832,0.0,-3.14159265
1.91296,1.98,0.832,0.0,-3.14159265
1.917056,1.803,0.858,0.0,-3.14159265
1.921152,1.607,0.572,0.0,-3.14159265
1.925248,1.362,0.39,0.0,-3.14159265
1.929344,1.088,0.39,0.0,-3.14159265
1.933376,0.803,0.156,0.0,-3.14159265
1.937408,0.509,-0.104,0.0,-3.14159265
1.941504,0.274,-0.208,0.0,-3.14159265
1.9456,-0.029,-0.39,0.0,-3.14159265
1.949696,-0.333,-0.65,0.0,-3.14159265
1.953856,-0.627,-0.806,0.0,-3.14159265
1.958016,-0.98,-1.17,0.0,-3.14159265
1.962304,-1.254,-1.274,0.0,-3.14159265
1.966656,-1.48,-1.404,0.0,-3.14159265
1.970944,-1.764,-1.456,0.0,-3.14159265
1.975296,-1.97,-1.586,0.0,-3.14159265
1.979648,-2.137,-1.69,0.0,-3.14159265
1.984,-2.303,-1.846,0.0,-3.14159265
1.988352,-2.392,-1.95,0.0,-3.14159265
1.992704,-2.47,-1.924,0.0,-3.14159265
1.997056,-2.49,-2.08,0.0,-3.14159265
2.001408,-2.48,-2.236,0.0,-3.14159265
2.00576,-2.431,-2.048,0.0,-3.14159265
2.010112,-2.303,-1.95,0.0,-3.14159265
2.014464,-2.186,-1.976,0.0,-3.14159265
2.018752,-2.019,-1.846,0.0,-3.14159265
2.023104,-1.764,-1.638,0.0,-3.14159265
2.027456,-1.529,-1.56,0.0,-3.14159265
2.031808,-1.303,-1.508,0.0,-3.14159265
2.03616,-0.95,-1.534,0.0,-3.14159265
2.040448,-0.666,-1.196,0.0,-3.14159265
2.044672,-0.392,-0.91,0.0,-3.14159265
2.048832,-0.088,-0.884,0.0,-3.14159265
2.052928,0.303,-0.494,0.0,-3.14159265
2.057024,0.598,-0.338,0.0,-3.14159265
2.06112,0.892,-0.286,0.0,-3.14159265
2.065216,1.176,0.104,0.0,-3.14159265
2.069312,1.431,0.0,0.0,-3.14159265
2.073216,1.676,0.234,0.0,-3.14159265
2.077312,1.911,0.416,0.0,-3.14159265
2.081408,2.078,0.546,0.0,-3.14159265
2.085504,2.225,0.624,0.0,-3.14159265
2.0896,2.352,0.702,0.0,-3.14159265
2.093632,2.441,0.806,0.0,-3.14159265
2.097728,2.49,0.91,0.0,-3.14159265
2.101824,2.49,0.91,0.0,-3.14159265
2.10592,2.45,1.066,0.0,-3.14159265
2.11008,2.372,0.806,0.0,-3.14159265
2.114176,2.264,0.988,0.0,-3.14159265
2.118272,2.127,0.884,0.0,-3.14159265
2.122368,1.931,0.754,0.0,-3.14159265
2.126464,1.715,0.624,0.0,-3.14159265
2.13056,1.48,0.65,0.0,-3.14159265
2.134656,1.225,0.39,0.0,-3.14159265
2.138688,0.95,0.208,0.0,-3.14159265
2.14272,0.627,0.078,0.0,-3.14159265
2.146624,0.333,-0.234,0.0,-3.14159265
2.15072,0.0,-0.338,0.0,-3.14159265
2.154624,-0.274,-0.468,0.0,-3.14159265
2.158848,-0.568,-0.728,0.0,-3.14159265
2.163008,-0.98,-0.962,0.0,-3.14159265
2.167168,-1.254,-1.04,0.0,-3.14159265
2.17152,-1.509,-1.248,0.0,-3.14159265
2.175872,-1.745,-1.456,0.0,-3.14159265
2.180224,-2.019,-1.768,0.0,-3.14159265
2.184576,-2.166,-1.794,0.0,-3.14159265
2.188928,-2.343,-1.768,0.0,-3.14159265
2.19328,-2.431,-1.846,0.0,-3.14159265
2.197568,-2.49,-1.976,0.0,-3.14159265
2.20192,-2.49,-1.898,0.0,-3.14159265
2.206272,-2.45,-1.976,0.0,-3.14159265
