time(s),reference current(A),current(A),cart position(m),pendulum angle(rad)
0.00768,0.0,0.0,0.0,-3.14159265
0.011008,0.094,0.0,0.0,-3.14159265
0.014592,0.164,0.0,0.0,-3.14159265
0.01824,0.266,0.13,0.0,-3.14159265
0.022016,0.36,0.234,1.8e-05,-3.14080725184
0.02592,0.454,0.338,5.4e-05,-3.14080725184
0.029824,0.533,0.416,0.000126,-3.14080725184
0.033792,0.619,0.52,0.000252,-3.14080725184
0.037824,0.713,0.572,0.000432,-3.14002185367
0.041792,0.807,0.65,0.000702,-3.13923645551
0.04576,0.894,0.754,0.00108,-3.13845105735
0.049856,1.003,0.858,0.001566,-3.13766565919
0.054016,1.105,1.014,0.00216,-3.13609486286
0.05824,1.184,1.04,0.002952,-3.13373866837
0.062464,1.286,1.118,0.003816,-3.13138247389
0.066688,1.356,1.196,0.004878,-3.1290262794
0.070912,1.443,1.404,0.006102,-3.12667008491
0.0752,1.529,1.43,0.007506,-3.12352849226
0.079424,1.584,1.378,0.009144,-3.11881610329
0.083648,1.647,1.664,0.010944,-3.11488911248
0.087936,1.709,1.534,0.013014,-3.10939132534
0.092288,1.772,1.638,0.015372,-3.10467893636
0.09664,1.811,1.664,0.017892,-3.09996654739
0.100928,1.874,1.768,0.020664,-3.09368336209
0.105344,1.905,1.664,0.02385,-3.08582938046
0.10976,1.937,1.924,0.027216,-3.07797539884
0.114176,1.96,1.924,0.030906,-3.07090681538
0.118592,1.976,1.846,0.034884,-3.0599112411
0.123008,1.992,1.742,0.03915,-3.05127186131
0.127424,2.0,1.82,0.04374,-3.04184708336
0.13184,1.992,1.716,0.048564,-3.03163690725
0.136256,1.984,1.56,0.05373,-3.01907053665
0.140672,1.968,1.586,0.059148,-3.00807496238
0.145088,1.945,1.586,0.0648,-2.99550859178
0.149504,1.913,1.508,0.070704,-2.97980062853
0.15392,1.874,1.274,0.076734,-2.96959045241
0.158336,1.827,1.17,0.082998,-2.95231169284
0.162752,1.78,1.274,0.089406,-2.93974532224
0.167168,1.709,1.118,0.095922,-2.9279643498
0.171584,1.647,0.936,0.1026,-2.91304178471
0.176,1.576,1.092,0.10935,-2.8965484233
0.180544,1.498,0.806,0.116316,-2.88241125638
0.18496,1.396,0.936,0.123246,-2.87063028394
0.189376,1.301,0.512,0.130248,-2.85570771885
0.193792,1.223,0.858,0.137304,-2.8399997556
0.198208,1.105,0.598,0.144396,-2.82664798684
0.202624,1.027,0.702,0.151524,-2.81172542175
0.20704,0.87,0.52,0.15867,-2.79758825482
0.211392,0.784,0.572,0.165672,-2.78423648606
0.21568,0.666,0.546,0.172674,-2.76774312465
0.220032,0.556,0.39,0.179676,-2.75674755038
0.224384,0.431,0.52,0.186624,-2.74339578161
0.228672,0.313,0.234,0.19359,-2.73004401285
0.233024,0.164,0.442,0.200484,-2.71669224409
0.237376,0.047,0.026,0.207324,-2.70491127165
0.241536,-0.07,0.182,0.213858,-2.69077410473
0.245824,-0.164,0.026,0.220536,-2.68056392861
0.250176,-0.313,-0.234,0.227124,-2.66878295618
0.25472,-0.431,-0.182,0.233802,-2.6577873819
0.2592,-0.58,-0.39,0.2403,-2.64679180763
0.26368,-0.69,-0.598,0.246636,-2.63422543703
0.268224,-0.831,-0.494,0.252702,-2.62715685356
0.272704,-0.941,-0.624,0.258552,-2.61616127929
0.277184,-1.066,-0.91,0.264132,-2.60987809399
0.281792,-1.168,-1.118,0.269514,-2.60202411236
0.286464,-1.286,-1.17,0.274662,-2.5949555289
0.291136,-1.396,-1.3,0.27945,-2.58945774176
0.295808,-1.474,-1.352,0.28386,-2.58395995463
0.30048,-1.576,-1.378,0.287892,-2.58160376014
0.305152,-1.662,-1.326,0.29151,-2.57846216749
0.309824,-1.725,-1.664,0.294678,-2.57767676933
0.314496,-1.796,-1.664,0.297414,-2.576105973
0.319232,-1.858,-1.612,0.2997,-2.57689137116
0.323904,-1.898,-1.742,0.301536,-2.57924756565
0.328576,-1.945,-1.792,0.302904,-2.5823891583
0.333248,-1.968,-1.872,0.303732,-2.58631614911
0.33792,-1.992,-1.768,0.304164,-2.59181393625
0.342592,-1.992,-1.742,0.304092,-2.59888251971
0.347264,-1.992,-1.872,0.303588,-2.60595110318
0.351936,-1.976,-1.872,0.302652,-2.61616127929
0.356608,-1.96,-1.95,0.30132,-2.62558605724
0.36128,-1.913,-1.846,0.299556,-2.63501083519
0.365952,-1.874,-1.82,0.29745,-2.64757720579
0.370624,-1.827,-1.664,0.294966,-2.65935817823
0.375296,-1.756,-1.82,0.29214,-2.67349534515
0.379968,-1.67,-1.43,0.288936,-2.6892033084
0.38464,-1.6,-1.69,0.285462,-2.70334047533
0.389312,-1.513,-1.69,0.281682,-2.72297542939
0.393984,-1.396,-1.456,0.277614,-2.73789799447
0.398656,-1.301,-1.248,0.273312,-2.75517675405
0.403328,-1.168,-1.144,0.268758,-2.77324091179
0.408,-1.043,-1.014,0.264006,-2.79366126401
0.412736,-0.917,-0.936,0.259056,-2.81251081991
0.417216,-0.784,-0.78,0.254142,-2.83607276479
0.421696,-0.666,-0.676,0.249084,-2.8525661262
0.42624,-0.501,-0.702,0.243972,-2.8714156821
0.43072,-0.36,-0.52,0.238734,-2.8965484233
0.435264,-0.219,-0.416,0.23346,-2.91382718287
0.439744,-0.094,-0.364,0.228204,-2.9342475351
0.44416,0.07,-0.208,0.223038,-2.95466788733
0.448512,0.188,-0.052,0.218034,-2.97508823955
0.4528,0.337,0.104,0.213084,-2.99393779545
0.457152,0.478,0.26,0.208242,-3.01435814768
0.461504,0.619,0.39,0.203544,-3.03792009255
0.465792,0.737,0.52,0.19899,-3.05284265764
0.470144,0.894,0.598,0.194634,-3.07169221354
0.474496,1.027,0.78,0.190494,-3.09054176944
0.478912,1.145,0.962,0.186516,-3.10860592718
0.483328,1.262,1.04,0.182844,-3.12509928859
0.487808,1.356,1.092,0.179352,-3.14316344632
0.492352,1.474,1.3,0.17622,-3.15965680774
0.496832,1.576,1.352,0.17343,-3.17457937283
0.501312,1.662,1.586,0.171018,-3.19028733607
0.505856,1.733,1.378,0.169002,-3.20285370668
0.510336,1.811,1.664,0.1674,-3.21620547544
0.514816,1.858,1.794,0.166194,-3.22877184604
0.51936,1.913,1.742,0.16542,-3.23976742031
0.52384,1.952,1.768,0.165114,-3.24997759642
0.52832,1.984,1.82,0.165186,-3.25940237438
0.532864,1.992,1.924,0.165672,-3.26804175416
0.537344,1.992,1.742,0.1665,-3.27511033763
0.541888,1.984,1.846,0.167706,-3.28139352293
0.546368,1.96,2.054,0.169308,-3.28453511558
0.550848,1.929,1.898,0.171198,-3.28924750455
0.555392,1.882,1.742,0.17343,-3.29395989353
0.559872,1.827,1.846,0.17604,-3.29631608801
0.564352,1.756,1.794,0.178938,-3.29710148618
0.568896,1.686,1.638,0.182142,-3.29945768066
0.573376,1.576,1.716,0.185598,-3.30102847699
0.577856,1.498,1.612,0.189396,-3.2986722825
0.5824,1.356,1.482,0.193392,-3.2986722825
0.58688,1.262,1.17,0.197604,-3.29788688434
0.59136,1.129,1.024,0.202068,-3.29553068985
0.595904,1.003,0.988,0.206658,-3.29395989353
0.60032,0.831,0.858,0.211356,-3.29160369904
0.604672,0.713,0.728,0.216036,-3.28767670823
0.60896,0.556,0.598,0.220788,-3.28532051374
0.613312,0.407,0.516,0.225612,-3.28296431925
0.617664,0.266,0.208,0.230454,-3.27746653211
0.621952,0.094,0.182,0.235314,-3.2735395413
0.62624,-0.07,0.104,0.239976,-3.27196874498
0.630528,-0.188,-0.078,0.244728,-3.267256356
0.635008,-0.36,-0.156,0.249498,-3.26332936519
0.639488,-0.533,-0.338,0.254196,-3.26175856886
0.643968,-0.69,-0.416,0.258786,-3.25861697621
0.648512,-0.831,-0.512,0.263142,-3.25626078172
0.652992,-0.98,-0.676,0.267336,-3.25390458724
0.657536,-1.105,-0.858,0.271206,-3.25233379091
0.66208,-1.247,-1.092,0.274896,-3.25154839275
0.666752,-1.356,-1.17,0.278334,-3.25076299459
0.671424,-1.498,-1.222,0.281412,-3.25154839275
0.676096,-1.615,-1.482,0.284076,-3.25390458724
0.680768,-1.686,-1.43,0.286326,-3.2546899854
0.685504,-1.78,-1.586,0.288198,-3.25861697621
0.690176,-1.858,-1.742,0.289584,-3.26175856886
0.694848,-1.905,-1.792,0.290574,-3.26647095784
0.69952,-1.952,-1.742,0.291006,-3.27432493946
0.704192,-1.984,-1.846,0.29115,-3.27903732844
0.708864,-1.992,-1.976,0.290754,-3.28767670823
0.713536,-1.992,-1.898,0.289998,-3.29710148618
0.718208,-1.976,-1.846,0.288828,-3.3049554678
0.72288,-1.945,-2.002,0.287298,-3.31516564391
0.727552,-1.898,-1.794,0.285354,-3.32694661635
0.732224,-1.827,-2.048,0.283104,-3.33872758879
0.736896,-1.756,-1.664,0.280476,-3.35129395939
0.741568,-1.662,-1.82,0.277596,-3.36307493182
0.74624,-1.545,-1.404,0.274374,-3.37564130243
0.750912,-1.427,-1.482,0.2709,-3.39370546016
0.755584,-1.301,-1.534,0.26721,-3.4054864326
0.76032,-1.168,-1.222,0.263322,-3.41883820136
0.764992,-1.003,-1.024,0.259236,-3.43533156278
0.769664,-0.854,-0.78,0.254988,-3.45103952603
0.774144,-0.69,-0.754,0.25083,-3.46360589663
0.778624,-0.556,-0.728,0.246564,-3.48009925804
0.783168,-0.337,-0.624,0.242244,-3.4934510268
0.787648,-0.188,-0.494,0.237906,-3.50680279556
0.792192,0.0,-0.256,0.233604,-3.52408155514
0.796416,0.141,-0.026,0.22959,-3.53507712941
0.800768,0.313,0.104,0.225594,-3.5499996945
0.805056,0.478,0.256,0.221688,-3.56020987061
0.809408,0.643,0.364,0.217908,-3.57591783386
0.81376,0.784,0.512,0.214344,-3.58298641733
0.818048,0.956,0.754,0.210978,-3.59555278792
0.8224,1.105,0.884,0.20781,-3.6065483622
0.826816,1.223,1.014,0.204876,-3.61518774199
0.83136,1.372,1.092,0.202212,-3.62461251994
0.83584,1.498,1.28,0.199836,-3.63403729789
0.84032,1.615,1.274,0.197874,-3.63953508503
0.844864,1.701,1.508,0.196218,-3.64738906665
0.849344,1.796,1.716,0.19503,-3.65288685379
0.853824,1.858,1.664,0.194238,-3.65602844644
0.858368,1.921,1.716,0.193842,-3.65995543725
0.862848,1.96,1.768,0.193878,-3.6630970299
0.867328,1.992,1.898,0.19431,-3.6630970299
0.871872,1.992,1.794,0.19512,-3.66388242806
0.876352,1.984,1.898,0.196236,-3.66466782623
0.880832,1.968,1.95,0.197748,-3.66152623358
0.885376,1.913,1.95,0.19962,-3.65917003909
0.889856,1.874,1.742,0.201762,-3.65759924276
0.8944,1.796,1.872,0.204318,-3.65210145562
0.89888,1.709,1.612,0.207108,-3.64660366849
0.90336,1.6,1.56,0.21024,-3.64189127951
0.907904,1.498,1.69,0.213642,-3.63325189973
0.912384,1.356,1.28,0.217278,-3.62618331626
0.916864,1.223,1.17,0.221166,-3.61990013096
0.921408,1.066,1.118,0.225216,-3.61126075118
0.925888,0.917,1.066,0.229482,-3.60105057506
0.930304,0.713,0.962,0.233766,-3.59162579711
0.934656,0.58,0.832,0.238068,-3.58377181549
0.939008,0.36,0.65,0.242496,-3.56963464856
0.943296,0.188,0.288,0.246906,-3.56335146326
0.947648,0.047,0.156,0.251316,-3.55235588899
0.951872,-0.117,0.078,0.255672,-3.54057491655
0.956224,-0.337,-0.256,0.260028,-3.53193553676
0.960704,-0.478,-0.39,0.264474,-3.52172536065
0.965248,-0.69,-0.52,0.268812,-3.50680279556
0.969728,-0.854,-0.572,0.272952,-3.49816341578
0.974272,-1.027,-0.754,0.276894,-3.48873863783
0.978816,-1.168,-0.91,0.280674,-3.47695766539
0.983424,-1.341,-1.144,0.28413,-3.46753288744
0.988096,-1.474,-1.222,0.28737,-3.45810810949
0.992768,-1.584,-1.3,0.290268,-3.4494687297
0.99744,-1.709,-1.508,0.292752,-3.44161474808
1.002112,-1.811,-1.56,0.29484,-3.43297536829
1.006912,-1.898,-1.69,0.296532,-3.42669218299
1.011648,-1.937,-1.794,0.297774,-3.42040899769
1.016448,-1.976,-1.95,0.29853,-3.41569660871
1.021184,-1.992,-1.872,0.298782,-3.41098421974
1.025984,-1.992,-1.82,0.298602,-3.40862802525
1.030784,-1.968,-1.846,0.297954,-3.40627183076
1.03552,-1.913,-2.002,0.296874,-3.40470103444
1.04032,-1.85,-1.846,0.29538,-3.40470103444
1.045056,-1.756,-1.69,0.293562,-3.40391563628
1.049856,-1.67,-1.792,0.291348,-3.40470103444
1.054592,-1.545,-1.456,0.288846,-3.4054864326
1.059392,-1.396,-1.638,0.286038,-3.40705722893
1.064128,-1.223,-1.3,0.283014,-3.40862802525
1.068928,-1.043,-0.988,0.279702,-3.4117696179
1.0736,-0.894,-1.274,0.276354,-3.41334041422
1.078272,-0.69,-0.884,0.272844,-3.41648200687
1.08288,-0.533,-0.624,0.269298,-3.42040899769
1.087488,-0.313,-0.468,0.265716,-3.42197979401
1.092096,-0.094,-0.442,0.262098,-3.4243359885
1.096576,0.07,-0.156,0.258606,-3.42747758115
1.101056,0.29,0.0,0.255222,-3.42904837748
1.10528,0.454,0.182,0.252072,-3.4306191738
1.109696,0.643,0.416,0.248886,-3.43218997013
1.114112,0.831,0.512,0.245898,-3.43218997013
1.118592,1.003,0.78,0.243108,-3.43297536829
1.123072,1.184,0.962,0.24048,-3.43297536829
1.127616,1.341,1.024,0.238194,-3.4306191738
1.13216,1.498,1.274,0.236124,-3.42904837748
1.136768,1.6,1.43,0.23445,-3.42747758115
1.141376,1.725,1.456,0.233172,-3.42119439585
1.145984,1.827,1.536,0.23229,-3.41648200687
1.150592,1.898,1.69,0.231822,-3.41255501606
1.1552,1.952,1.536,0.231822,-3.40391563628
1.159808,1.984,1.872,0.232236,-3.39527625649
1.164352,2.0,1.924,0.232974,-3.38977846935
1.16896,1.984,1.82,0.234162,-3.37642670059
1.173568,1.96,1.898,0.235674,-3.36700192264
1.178176,1.898,1.898,0.237564,-3.3552209502
1.182784,1.835,1.716,0.239814,-3.34108378328
1.187392,1.725,1.82,0.24237,-3.32930281084
1.191936,1.6,1.534,0.245286,-3.3112386531
1.196544,1.498,1.508,0.248508,-3.29553068985
1.201152,1.341,1.508,0.25191,-3.28453511558
1.20576,1.184,1.248,0.255618,-3.26254396703
1.210368,0.98,1.092,0.259542,-3.24605060561
1.214848,0.831,0.768,0.263484,-3.23348423501
1.219264,0.619,0.858,0.267534,-3.21620547544
1.223744,0.431,0.754,0.271674,-3.1981413177
1.22816,0.219,0.256,0.275814,-3.1792917618
1.232576,0.023,0.26,0.279954,-3.16436919671
1.236928,-0.219,0.0,0.284004,-3.14630503898
1.24128,-0.384,-0.156,0.287964,-3.13059707572
1.245888,-0.58,-0.312,0.292032,-3.1101767235
1.250432,-0.807,-0.416,0.295956,-3.09525415841
1.25504,-1.003,-0.728,0.299574,-3.08033159332
1.259776,-1.168,-1.014,0.303084,-3.06305283375
1.264512,-1.341,-0.988,0.306288,-3.04655947234
1.269184,-1.513,-1.248,0.309078,-3.03163690725
1.273984,-1.647,-1.404,0.311526,-3.01671434216
1.27872,-1.749,-1.586,0.313542,-3.00650416605
1.28352,-1.85,-1.612,0.315108,-2.99472319361
1.28832,-1.929,-1.716,0.316188,-2.98372761934
1.293056,-1.976,-1.768,0.316764,-2.97587363771
1.297856,-1.992,-1.794,0.316854,-2.96487806344
1.302592,-1.992,-1.924,0.31644,-2.95859487814
1.307392,-1.96,-1.924,0.315504,-2.95545328549
1.312128,-1.898,-1.794,0.314226,-2.94838470203
1.316928,-1.803,-1.742,0.312516,-2.94445771121
1.321664,-1.725,-1.898,0.310356,-2.94367231305
1.326464,-1.584,-1.482,0.307962,-2.93895992408
1.3312,-1.427,-1.612,0.305118,-2.93895992408
1.336,-1.247,-1.326,0.302076,-2.93895992408
1.340736,-1.09,-1.04,0.29871,-2.93817452591
1.345536,-0.87,-1.28,0.295164,-2.93974532224
1.350208,-0.643,-0.936,0.29151,-2.94288691489
1.354816,-0.478,-0.65,0.287856,-2.94210151673
1.359424,-0.243,-0.512,0.284094,-2.94445771121
1.364032,0.0,-0.286,0.280314,-2.94759930386
1.368384,0.188,-0.078,0.27684,-2.94759930386
1.3728,0.384,0.13,0.273294,-2.95074089651
1.377216,0.643,0.256,0.269874,-2.953097091
1.381632,0.807,0.52,0.266598,-2.953097091
1.386048,1.043,0.754,0.263538,-2.95388248916
1.390592,1.207,0.988,0.260622,-2.95623868365
1.395072,1.372,1.118,0.258012,-2.95466788733
1.39968,1.529,1.248,0.255654,-2.95466788733
1.404288,1.662,1.43,0.253674,-2.95388248916
1.408896,1.772,1.508,0.252072,-2.95152629468
1.413504,1.874,1.586,0.250866,-2.94917010019
1.418112,1.945,1.69,0.250074,-2.94445771121
1.422656,1.976,1.846,0.24975,-2.93895992408
1.427264,2.0,1.872,0.24984,-2.93503293326
1.431872,1.984,1.898,0.250362,-2.92874974796
1.43648,1.945,1.872,0.251298,-2.92246656266
1.441088,1.882,1.872,0.252576,-2.9153979792
1.445696,1.803,1.742,0.25416,-2.90675859941
1.450304,1.67,1.82,0.256104,-2.8965484233
1.454848,1.56,1.534,0.2583,-2.88869444168
1.459456,1.372,1.586,0.260784,-2.87848426556
1.464064,1.207,1.024,0.263538,-2.86670329313
1.468672,1.027,1.274,0.266436,-2.85806391334
1.47328,0.784,0.91,0.269496,-2.84706833906
1.477696,0.603,0.754,0.272592,-2.83607276479
1.482112,0.36,0.65,0.275724,-2.82586258868
1.486528,0.164,0.286,0.278856,-2.81722320889
1.490944,-0.094,0.234,0.282024,-2.80308604196
1.495424,-0.29,0.052,0.285084,-2.79523206034
1.49984,-0.478,-0.286,0.288054,-2.78737807871
1.504448,-0.737,-0.512,0.290988,-2.77638250444
1.509056,-0.956,-0.728,0.293706,-2.76774312465
1.5136,-1.145,-0.754,0.296208,-2.76067454119
1.518336,-1.341,-1.118,0.29844,-2.75124976324
1.523072,-1.529,-1.196,0.300366,-2.74496657794
1.527872,-1.662,-1.43,0.301896,-2.7394687908
1.532608,-1.78,-1.536,0.302994,-2.73475640182
1.537408,-1.89,-1.664,0.303642,-2.73161480917
1.542144,-1.952,-1.742,0.30384,-2.72925861469
1.546944,-1.992,-1.82,0.303552,-2.72768781836
1.55168,-1.992,-1.898,0.30285,-2.72768781836
1.55648,-1.968,-2.054,0.301698,-2.72925861469
1.561216,-1.913,-2.048,0.300114,-2.73161480917
1.566016,-1.827,-1.742,0.298188,-2.73397100366
1.570816,-1.725,-1.95,0.295794,-2.73868339264
1.575552,-1.576,-1.586,0.293166,-2.74418117977
1.580352,-1.396,-1.456,0.290124,-2.75046436508
1.585088,-1.207,-1.508,0.286902,-2.75596215221
1.589888,-1.027,-1.04,0.283356,-2.76538693016
1.594624,-0.807,-0.91,0.279648,-2.77324091179
1.599232,-0.556,-0.884,0.275958,-2.78030949525
1.60384,-0.337,-0.65,0.272124,-2.78894887504
1.608448,-0.07,-0.512,0.26829,-2.79837365299
1.612928,0.188,-0.13,0.264474,-2.80622763461
1.617472,0.407,0.13,0.260766,-2.8148670144
1.621888,0.603,0.286,0.257184,-2.82429179235
1.626304,0.854,0.546,0.253728,-2.83214577398
1.63072,1.043,0.78,0.250452,-2.8399997556
1.635264,1.262,0.988,0.247356,-2.84785373722
1.639744,1.427,1.17,0.244548,-2.85492232069
1.644352,1.584,1.378,0.241974,-2.86199090415
1.64896,1.749,1.43,0.239796,-2.86827408945
1.653568,1.843,1.716,0.238014,-2.87455727475
1.658176,1.921,1.536,0.236628,-2.88005506189
1.662784,1.968,1.768,0.235728,-2.88241125638
1.667328,1.992,1.872,0.235242,-2.88712364535
1.671936,1.984,1.846,0.235242,-2.88947983984
1.676544,1.945,1.898,0.235638,-2.890265238
1.681152,1.874,1.95,0.236466,-2.89105063616
1.68576,1.78,1.846,0.2376,-2.89262143249
1.690368,1.631,1.612,0.239076,-2.89183603433
1.694976,1.474,1.28,0.240858,-2.88947983984
1.69952,1.301,1.482,0.242838,-2.88947983984
1.704128,1.105,1.17,0.245088,-2.88869444168
1.708736,0.894,1.17,0.247554,-2.8839820527
1.71328,0.643,0.806,0.25002,-2.8839820527
1.717696,0.431,0.702,0.252612,-2.88241125638
1.722112,0.164,0.39,0.255204,-2.87848426556
1.726528,-0.047,0.208,0.257832,-2.87691346924
1.730944,-0.313,0.078,0.260388,-2.87612807108
1.735424,-0.556,-0.234,0.262854,-2.87377187659
1.739968,-0.807,-0.468,0.265302,-2.87220108026
1.744576,-1.003,-0.702,0.267498,-2.87220108026
1.749248,-1.223,-0.962,0.269532,-2.87063028394
1.753984,-1.427,-1.014,0.271188,-2.87298647843
1.75872,-1.576,-1.28,0.272574,-2.87377187659
1.76352,-1.749,-1.456,0.27351,-2.87612807108
1.768256,-1.85,-1.638,0.274032,-2.88162585821
1.773056,-1.945,-1.716,0.274068,-2.88633824719
1.777792,-1.984,-1.82,0.273672,-2.89105063616
1.782592,-1.992,-2.002,0.272772,-2.89969001595
1.787328,-1.968,-1.846,0.271458,-2.90754399757
1.792128,-1.905,-1.716,0.269748,-2.91696877553
1.796928,-1.803,-1.924,0.267624,-2.92874974796
1.801664,-1.701,-1.534,0.26514,-2.93895992408
1.806464,-1.529,-1.794,0.262296,-2.95152629468
1.8112,-1.341,-1.43,0.259128,-2.96487806344
1.816,-1.105,-1.17,0.255708,-2.9782298322
1.820736,-0.894,-1.196,0.252036,-2.99236699913
1.825472,-0.643,-0.988,0.248274,-3.0096457587
1.830016,-0.36,-0.598,0.244476,-3.01985593481
1.834624,-0.164,-0.26,0.240606,-3.03870549071
1.839232,0.141,-0.208,0.2367,-3.05205725948
1.843776,0.36,0.026,0.232974,-3.0661944264
1.848128,0.643,0.338,0.229446,-3.078760797
1.852544,0.854,0.546,0.22599,-3.09289796393
1.85696,1.105,0.754,0.222786,-3.10546433453
1.86144,1.286,1.092,0.21969,-3.11881610329
1.866048,1.498,1.17,0.216882,-3.13295327021
1.870656,1.647,1.456,0.214452,-3.14316344632
1.875264,1.78,1.28,0.2124,-3.15258822428
1.879872,1.882,1.536,0.21078,-3.16436919671
1.88448,1.952,1.872,0.209628,-3.17222317834
1.889024,1.992,1.742,0.208908,-3.1792917618
1.893632,1.992,1.846,0.208656,-3.18714574342
1.89824,1.96,1.846,0.208854,-3.1918581324
1.902848,1.898,1.794,0.209412,-3.1981413177
1.907456,1.772,1.742,0.210402,-3.20128291035
1.912064,1.631,1.664,0.211698,-3.204424503
1.916672,1.474,1.586,0.213318,-3.20678069749
1.921216,1.286,1.352,0.215244,-3.20835149381
1.925824,1.09,1.352,0.217404,-3.20913689198
1.930432,0.807,0.768,0.219744,-3.20992229014
1.934848,0.619,0.858,0.222138,-3.2107076883
1.939264,0.313,0.598,0.224676,-3.20913689198
1.943744,0.07,0.39,0.227196,-3.2107076883
1.948032,-0.188,0.052,0.22968,-3.2107076883
1.952512,-0.431,-0.104,0.232182,-3.20992229014
1.95712,-0.737,-0.39,0.23463,-3.2107076883
1.961664,-0.941,-0.702,0.236898,-3.21227848463
1.966272,-1.184,-0.832,0.239004,-3.21227848463
1.971008,-1.411,-1.092,0.240786,-3.21384928095
1.975744,-1.576,-1.326,0.242334,-3.2169908736
1.980544,-1.749,-1.378,0.243432,-3.21856166993
1.98528,-1.858,-1.638,0.244134,-3.2232740589
1.99008,-1.952,-1.742,0.244404,-3.22877184604
1.994816,-1.984,-2.002,0.244206,-3.23348423501
1.999616,-1.992,-1.872,0.243522,-3.2421236148
