time(s),reference current(A),current(A),cart position(m),pendulum angle(rad)
0.00768,0.0,-0.026,0.0,-3.14159265
0.0112,0.094,0.0,0.0,-3.14159265
0.014784,0.164,0.026,0.0,-3.14159265
0.018496,0.266,0.078,0.0,-3.14159265
0.022208,0.36,0.26,1.8e-05,-3.14159265
0.026112,0.454,0.312,5.4e-05,-3.14159265
0.030016,0.556,0.442,0.000126,-3.14159265
0.033984,0.643,0.52,0.000252,-3.14159265
0.037952,0.737,0.598,0.00045,-3.14080725184
0.041984,0.831,0.728,0.00072,-3.14002185367
0.045952,0.941,0.78,0.001062,-3.13923645551
0.049984,1.027,0.884,0.001512,-3.13845105735
0.054144,1.105,0.962,0.002106,-3.13609486286
0.058304,1.184,1.014,0.002826,-3.13452406654
0.062528,1.286,1.196,0.003726,-3.13295327021
0.066752,1.356,1.222,0.00477,-3.13059707572
0.07104,1.443,1.222,0.005994,-3.12745548308
0.075264,1.529,1.3,0.007434,-3.12431389043
0.079488,1.584,1.56,0.009036,-3.12117229778
0.083712,1.647,1.43,0.010836,-3.11724530696
0.088064,1.709,1.534,0.01296,-3.11253291799
0.092352,1.772,1.536,0.0153,-3.10546433453
0.096704,1.811,1.612,0.017838,-3.10153734371
0.100992,1.874,1.638,0.020718,-3.09446876025
0.105408,1.905,1.898,0.023886,-3.08661477862
0.109824,1.937,1.536,0.027324,-3.07797539884
0.114304,1.96,1.742,0.03105,-3.07090681538
0.11872,1.976,1.872,0.035118,-3.06069663926
0.123136,1.992,2.002,0.039456,-3.05205725948
0.127552,2.0,2.028,0.044064,-3.04184708336
0.131968,1.992,1.872,0.048996,-3.03085150909
0.136384,1.984,1.742,0.054198,-3.01985593481
0.1408,1.968,1.56,0.059634,-3.00807496238
0.145216,1.945,1.43,0.06534,-2.99236699913
0.149632,1.913,1.352,0.071208,-2.98215682301
0.154048,1.874,1.43,0.07731,-2.96959045241
0.158464,1.827,1.326,0.083592,-2.95545328549
0.16288,1.78,1.04,0.09,-2.94131611856
0.167296,1.709,1.17,0.096552,-2.9279643498
0.171712,1.647,1.014,0.103248,-2.91068559022
0.176192,1.576,0.91,0.110178,-2.89576302514
0.180608,1.498,0.988,0.117036,-2.8839820527
0.185024,1.396,0.754,0.123984,-2.86905948761
0.18944,1.301,0.91,0.130986,-2.85492232069
0.193856,1.223,0.598,0.138042,-2.84078515376
0.198272,1.105,0.806,0.145152,-2.82586258868
0.202688,1.027,0.546,0.15228,-2.81172542175
0.207104,0.87,0.702,0.159408,-2.79758825482
0.211456,0.784,0.442,0.166446,-2.7834510879
0.215808,0.666,0.52,0.173466,-2.76852852281
0.220096,0.556,0.442,0.18045,-2.75674755038
0.224448,0.431,0.416,0.187434,-2.74261038345
0.2288,0.313,0.468,0.194382,-2.72847321653
0.233088,0.164,0.26,0.201276,-2.71669224409
0.23744,0.047,0.286,0.208116,-2.70412587349
0.241664,-0.07,0.0,0.214794,-2.69077410473
0.245888,-0.164,0.052,0.221238,-2.68056392861
0.250176,-0.313,-0.026,0.227808,-2.66956835434
0.254592,-0.431,-0.512,0.234414,-2.6577873819
0.259136,-0.58,-0.286,0.240948,-2.6452210113
0.263616,-0.69,-0.442,0.247266,-2.63736702968
0.268096,-0.831,-0.754,0.253404,-2.62480065907
0.27264,-0.941,-0.806,0.259254,-2.61773207561
0.27712,-1.066,-0.754,0.264834,-2.60987809399
0.281728,-1.168,-0.806,0.270234,-2.60045331604
0.286336,-1.286,-0.858,0.275328,-2.5949555289
0.29088,-1.372,-1.024,0.280062,-2.59102853809
0.295552,-1.474,-1.28,0.284508,-2.58395995463
0.300224,-1.576,-1.536,0.288576,-2.58160376014
0.304896,-1.647,-1.586,0.29223,-2.57924756565
0.309568,-1.725,-1.638,0.295452,-2.57689137116
0.314304,-1.796,-1.638,0.298224,-2.576105973
0.318976,-1.858,-1.664,0.300582,-2.57689137116
0.323648,-1.898,-1.664,0.302364,-2.57846216749
0.32832,-1.945,-1.742,0.303822,-2.58081836198
0.332992,-1.968,-1.794,0.304704,-2.58710154728
0.337664,-1.984,-1.846,0.305136,-2.59181393625
0.342336,-1.992,-1.82,0.305118,-2.59731172339
0.347008,-1.992,-2.002,0.304596,-2.60516570501
0.35168,-1.984,-1.924,0.303786,-2.61301968664
0.356352,-1.96,-2.048,0.302472,-2.62322986275
0.361024,-1.913,-1.846,0.300834,-2.63422543703
0.365696,-1.882,-2.002,0.298782,-2.64600640946
0.370368,-1.827,-1.638,0.296424,-2.65857278006
0.37504,-1.756,-1.924,0.293688,-2.67113915066
0.379712,-1.686,-1.638,0.29061,-2.68684711391
0.384384,-1.6,-1.456,0.287208,-2.70255507716
0.389056,-1.513,-1.664,0.283536,-2.71983383674
0.393728,-1.411,-1.612,0.279576,-2.73789799447
0.3984,-1.301,-1.404,0.275328,-2.75517675405
0.403072,-1.168,-1.196,0.270864,-2.7708847173
0.407808,-1.066,-1.092,0.266184,-2.79051967136
0.41248,-0.917,-1.014,0.261324,-2.80936922726
0.417024,-0.784,-0.936,0.256356,-2.82900418133
0.421568,-0.666,-0.78,0.251352,-2.85335152436
0.426048,-0.501,-0.676,0.246258,-2.86905948761
0.430528,-0.36,-0.572,0.24111,-2.88869444168
0.435072,-0.219,-0.416,0.235854,-2.91382718287
0.439552,-0.094,-0.39,0.230634,-2.93032054429
0.443968,0.07,-0.156,0.22554,-2.95074089651
0.44832,0.188,0.026,0.220554,-2.97116124874
0.452544,0.337,0.104,0.215766,-2.99393779545
0.456896,0.454,0.26,0.210996,-3.0096457587
0.461248,0.619,0.364,0.206316,-3.03006611093
0.465536,0.737,0.52,0.201816,-3.04970106499
0.469888,0.87,0.624,0.197514,-3.06855062089
0.47424,1.027,0.78,0.193392,-3.08661477862
0.478656,1.129,0.962,0.18945,-3.1038935382
0.483072,1.262,1.04,0.18576,-3.12431389043
0.487552,1.356,1.118,0.182322,-3.14237804816
0.492096,1.474,1.326,0.179208,-3.15572981693
0.496576,1.576,1.3,0.176454,-3.1730085765
0.501056,1.662,1.534,0.174096,-3.18871653975
0.5056,1.733,1.352,0.172098,-3.20285370668
0.51008,1.811,1.56,0.170514,-3.21306388279
0.51456,1.858,1.664,0.16938,-3.2232740589
0.519104,1.913,1.768,0.168678,-3.2358404295
0.523584,1.952,1.768,0.168372,-3.24683600377
0.528064,1.984,1.716,0.168534,-3.25311918907
0.532608,1.992,1.82,0.169056,-3.26254396703
0.537088,1.992,1.872,0.169902,-3.27039794865
0.541568,1.984,1.846,0.171216,-3.27432493946
0.546112,1.96,1.924,0.172818,-3.28139352293
0.550592,1.929,1.768,0.17478,-3.28689131006
0.555136,1.882,1.976,0.177138,-3.28767670823
0.559616,1.827,1.716,0.179748,-3.29160369904
0.564096,1.756,1.82,0.182682,-3.29553068985
0.56864,1.686,1.536,0.185958,-3.29395989353
0.57312,1.576,1.534,0.189468,-3.29553068985
0.5776,1.498,1.534,0.19323,-3.29710148618
0.582144,1.356,1.534,0.197298,-3.29317449536
0.586624,1.262,1.456,0.201564,-3.29317449536
0.591104,1.129,1.248,0.205992,-3.29317449536
0.595648,1.003,1.118,0.210672,-3.28924750455
0.600128,0.831,0.962,0.215478,-3.2861059119
0.60448,0.713,0.78,0.220176,-3.28532051374
0.608832,0.58,0.512,0.225036,-3.28060812476
0.61312,0.407,0.512,0.229932,-3.27746653211
0.617472,0.266,0.256,0.234792,-3.27511033763
0.621824,0.117,0.256,0.239742,-3.27118334681
0.626112,-0.07,0.0,0.24462,-3.267256356
0.630272,-0.188,-0.026,0.249246,-3.26490016151
0.634752,-0.337,-0.193,0.254106,-3.25940237438
0.639232,-0.533,-0.442,0.258912,-3.25704617989
0.643712,-0.666,-0.546,0.263538,-3.2546899854
0.648256,-0.831,-0.676,0.267984,-3.25233379091
0.652736,-0.941,-0.858,0.272214,-3.24997759642
0.657216,-1.105,-0.91,0.276192,-3.2484068001
0.661824,-1.223,-0.832,0.279954,-3.24762140194
0.666432,-1.356,-1.092,0.283392,-3.24605060561
0.671104,-1.498,-1.352,0.286596,-3.24762140194
0.675776,-1.584,-1.3,0.289368,-3.2484068001
0.680448,-1.686,-1.482,0.291744,-3.24997759642
0.68512,-1.78,-1.612,0.293688,-3.25390458724
0.689792,-1.843,-1.638,0.295236,-3.25704617989
0.694464,-1.905,-1.742,0.296262,-3.26332936519
0.699136,-1.952,-1.794,0.296856,-3.26882715233
0.703808,-1.976,-1.846,0.296982,-3.27432493946
0.70848,-1.992,-1.846,0.296676,-3.28374971741
0.713216,-1.992,-1.872,0.295938,-3.2923890972
0.717888,-1.976,-2.002,0.29484,-3.30181387515
0.72256,-1.945,-1.82,0.293256,-3.31202405126
0.727232,-1.898,-1.768,0.291366,-3.3238050237
0.731904,-1.843,-2.028,0.289098,-3.33401519981
0.736576,-1.756,-1.586,0.286524,-3.34736696858
0.741248,-1.662,-1.768,0.283572,-3.36071873734
0.74592,-1.545,-1.664,0.280404,-3.37328510794
0.750592,-1.443,-1.352,0.276894,-3.38899307119
0.755264,-1.301,-1.352,0.273204,-3.40234483995
0.759936,-1.168,-1.456,0.269262,-3.41648200687
0.764608,-1.043,-1.28,0.26514,-3.43297536829
0.76928,-0.854,-1.066,0.260892,-3.44789793338
0.773888,-0.713,-0.832,0.256572,-3.46360589663
0.778368,-0.556,-0.65,0.252252,-3.47931385987
0.782912,-0.337,-0.468,0.247878,-3.4934510268
0.787392,-0.188,-0.26,0.243504,-3.50680279556
0.791936,0.0,-0.156,0.239112,-3.52251075881
0.79616,0.141,-0.078,0.235062,-3.53586252757
0.800512,0.313,0.0,0.231012,-3.55078509266
0.804672,0.431,0.208,0.227196,-3.5625660651
0.80896,0.643,0.364,0.223398,-3.57434703754
0.813312,0.784,0.546,0.219744,-3.58534261181
0.817664,0.941,0.702,0.216288,-3.59790898241
0.821952,1.105,0.858,0.213084,-3.60890455669
0.826368,1.223,0.768,0.210096,-3.61754393648
0.830784,1.356,1.144,0.207378,-3.62775411259
0.835328,1.498,1.248,0.20493,-3.63953508503
0.839808,1.584,1.508,0.202878,-3.64346207584
0.844288,1.701,1.43,0.201168,-3.65131605746
0.848832,1.78,1.586,0.199818,-3.65838464093
0.853312,1.858,1.742,0.198954,-3.66074083541
0.857856,1.913,1.536,0.19845,-3.66545322439
0.862336,1.96,1.768,0.19836,-3.6693802152
0.866816,1.984,1.82,0.198702,-3.67016561336
0.87136,1.992,1.872,0.199368,-3.67173640969
0.87584,1.992,1.924,0.200448,-3.67252180785
0.88032,1.968,1.95,0.201906,-3.67016561336
0.884864,1.937,1.846,0.203688,-3.66859481704
0.889344,1.874,2.002,0.205794,-3.66545322439
0.893824,1.803,1.69,0.208278,-3.66152623358
0.898368,1.709,1.792,0.21105,-3.6568138446
0.902848,1.615,1.586,0.214146,-3.65131605746
0.907392,1.498,1.534,0.217494,-3.644247474
0.911872,1.372,1.56,0.221112,-3.6379642887
0.916352,1.223,1.378,0.224964,-3.63011030708
0.920896,1.09,1.066,0.229014,-3.62225632545
0.925376,0.917,0.962,0.233244,-3.6128315475
0.929728,0.76,0.884,0.237438,-3.60497756588
0.934016,0.58,0.78,0.241758,-3.59476738976
0.938368,0.407,0.65,0.24615,-3.58534261181
0.94272,0.243,0.494,0.25056,-3.57356163938
0.947072,0.047,0.364,0.255006,-3.56570765775
0.951296,-0.117,0.156,0.259344,-3.55471208348
0.955712,-0.29,-0.052,0.26379,-3.54293111104
0.960128,-0.478,-0.26,0.268146,-3.53350633309
0.964608,-0.643,-0.768,0.272484,-3.52329615698
0.969152,-0.854,-0.702,0.27666,-3.51308598086
0.973632,-1.003,-0.78,0.280656,-3.50209040659
0.97824,-1.168,-0.832,0.284436,-3.49188023048
0.982848,-1.301,-1.066,0.287982,-3.48245545252
0.98752,-1.458,-1.248,0.291276,-3.47224527641
0.992192,-1.584,-1.248,0.294192,-3.4620351003
0.996864,-1.686,-1.56,0.29673,-3.45496651684
1.001536,-1.796,-1.378,0.29889,-3.44868333154
1.006272,-1.882,-1.664,0.300654,-3.44161474808
1.011072,-1.937,-1.82,0.301914,-3.43611696094
1.015872,-1.968,-1.846,0.302724,-3.43140457196
1.020608,-1.992,-1.846,0.303048,-3.42590678482
1.025408,-1.992,-1.82,0.302976,-3.42276519217
1.030144,-1.968,-1.872,0.302382,-3.42119439585
1.034944,-1.913,-1.82,0.301428,-3.41962359952
1.03968,-1.858,-1.794,0.300078,-3.4180528032
1.04448,-1.78,-1.872,0.298332,-3.4180528032
1.049216,-1.67,-1.56,0.296244,-3.4180528032
1.054016,-1.545,-1.846,0.293832,-3.41883820136
1.058752,-1.427,-1.404,0.291168,-3.42119439585
1.063552,-1.262,-1.326,0.288198,-3.42197979401
1.068288,-1.09,-1.3,0.285048,-3.42355059034
1.073088,-0.894,-1.024,0.281628,-3.42904837748
1.07776,-0.737,-0.858,0.278226,-3.42904837748
1.082368,-0.533,-0.806,0.274752,-3.43218997013
1.086976,-0.313,-0.546,0.27117,-3.43611696094
1.091584,-0.141,-0.208,0.267642,-3.4369023591
1.096192,0.07,-0.234,0.264114,-3.43925855359
1.100608,0.266,0.0,0.260766,-3.44161474808
1.104832,0.407,0.26,0.257616,-3.44240014624
1.109312,0.643,0.364,0.254466,-3.44397094256
1.113728,0.807,0.572,0.251496,-3.44475634073
1.118144,1.003,0.728,0.248724,-3.44475634073
1.122624,1.145,0.936,0.24615,-3.44475634073
1.127168,1.341,0.988,0.243828,-3.44397094256
1.131648,1.458,1.326,0.241848,-3.44161474808
1.136256,1.6,1.3,0.240192,-3.4369023591
1.140864,1.701,1.43,0.238842,-3.43611696094
1.145472,1.803,1.612,0.238014,-3.42983377564
1.15008,1.898,1.716,0.237564,-3.42197979401
1.154688,1.945,1.69,0.237564,-3.41726740504
1.159232,1.984,1.82,0.237942,-3.40941342341
1.16384,1.992,1.792,0.238806,-3.39684705281
1.168448,1.992,1.846,0.240012,-3.38899307119
1.173056,1.96,1.536,0.241578,-3.37878289508
1.177664,1.913,1.82,0.24354,-3.36621652447
1.182272,1.835,1.872,0.245844,-3.35050856123
1.186816,1.756,1.716,0.248472,-3.33872758879
1.191424,1.631,1.586,0.251424,-3.32459042186
1.196032,1.498,1.664,0.254664,-3.30888245861
1.20064,1.356,1.378,0.258192,-3.29003290271
1.205248,1.184,1.248,0.261936,-3.27589573579
1.209856,1.043,1.144,0.265878,-3.26018777254
1.2144,0.831,1.066,0.269982,-3.24290901296
1.218944,0.619,0.936,0.274194,-3.22091786441
1.22336,0.431,0.676,0.278352,-3.20678069749
1.227776,0.243,0.442,0.282564,-3.18950193791
1.232256,0.023,0.156,0.28683,-3.16829618753
1.236544,-0.164,0.078,0.290952,-3.15494441876
1.241024,-0.384,-0.078,0.295074,-3.13845105735
1.245504,-0.58,-0.208,0.29916,-3.12038689961
1.250112,-0.807,-0.442,0.303138,-3.10310814004
1.25472,-0.956,-0.78,0.306936,-3.0850439823
1.259328,-1.168,-0.91,0.310446,-3.06933601905
1.264,-1.341,-0.988,0.313704,-3.0536280558
1.268672,-1.474,-1.274,0.316602,-3.03949088888
1.273472,-1.631,-1.536,0.319176,-3.0222121293
1.278208,-1.749,-1.534,0.321264,-3.0096457587
1.283008,-1.85,-1.508,0.322956,-2.99943558259
1.287744,-1.913,-1.742,0.324144,-2.98686921199
1.292544,-1.968,-1.794,0.324864,-2.9782298322
1.29728,-1.992,-1.794,0.325026,-2.97116124874
1.30208,-1.992,-1.924,0.324738,-2.96330726711
1.30688,-1.968,-1.872,0.324018,-2.95623868365
1.311616,-1.913,-2.002,0.322794,-2.95152629468
1.316416,-1.827,-1.742,0.321192,-2.94759930386
1.321152,-1.725,-1.742,0.319176,-2.94445771121
1.325952,-1.584,-1.664,0.316818,-2.94210151673
1.330688,-1.458,-1.534,0.314136,-2.9405307204
1.335488,-1.286,-1.274,0.31113,-2.93974532224
1.340224,-1.09,-1.456,0.30789,-2.93974532224
1.345024,-0.87,-1.066,0.30447,-2.93974532224
1.349696,-0.69,-0.702,0.300888,-2.94131611856
1.354304,-0.478,-0.768,0.29727,-2.94288691489
1.358912,-0.243,-0.624,0.293616,-2.94367231305
1.36352,-0.047,-0.286,0.289944,-2.94602850754
1.368,0.188,-0.026,0.286326,-2.9468139057
1.37248,0.384,0.13,0.28287,-2.94838470203
1.376896,0.603,0.256,0.279504,-2.95074089651
1.381312,0.807,0.52,0.276264,-2.95152629468
1.385728,1.003,0.728,0.273258,-2.95231169284
1.390272,1.207,0.936,0.27036,-2.953097091
1.394752,1.341,1.04,0.267768,-2.953097091
1.39936,1.529,1.326,0.265464,-2.95152629468
1.403968,1.662,1.352,0.263502,-2.94995549835
1.408576,1.772,1.534,0.2619,-2.94917010019
1.41312,1.874,1.664,0.260784,-2.94445771121
1.417728,1.937,1.794,0.260028,-2.94131611856
1.422336,1.976,1.742,0.25974,-2.93738912775
1.426944,2.0,1.872,0.259848,-2.93189134061
1.431552,1.984,1.742,0.260334,-2.92482275715
1.43616,1.945,1.872,0.261198,-2.91853957185
1.440704,1.89,1.846,0.262386,-2.91147098839
1.445312,1.803,1.794,0.263952,-2.90361700676
1.44992,1.67,1.536,0.265824,-2.89419222881
1.454528,1.56,1.742,0.267984,-2.88476745086
1.459136,1.372,1.404,0.270414,-2.87377187659
1.463744,1.223,1.43,0.27306,-2.8651324968
1.468352,1.027,1.118,0.275958,-2.85413692252
1.472896,0.854,1.118,0.278964,-2.84392674641
1.47744,0.603,0.754,0.28206,-2.83293117214
1.481856,0.407,0.572,0.285174,-2.82272099603
1.486272,0.164,0.52,0.288306,-2.81251081991
1.490688,-0.047,0.0,0.29142,-2.80308604196
1.494976,-0.29,0.026,0.294354,-2.79366126401
1.499392,-0.478,-0.182,0.297342,-2.78109489341
1.504,-0.737,-0.442,0.300276,-2.77402630995
1.508608,-0.917,-0.624,0.302994,-2.76538693016
1.513216,-1.145,-0.858,0.305514,-2.75596215221
1.517888,-1.317,-1.066,0.307728,-2.75046436508
1.522688,-1.498,-1.28,0.30969,-2.74182498529
1.527424,-1.662,-1.43,0.311202,-2.73632719815
1.532224,-1.78,-1.534,0.312336,-2.73240020734
1.53696,-1.89,-1.638,0.312984,-2.72847321653
1.54176,-1.945,-1.768,0.313218,-2.72533162388
1.546496,-1.984,-1.898,0.312966,-2.72533162388
1.551296,-1.992,-1.82,0.3123,-2.72533162388
1.556032,-1.968,-1.69,0.311238,-2.72454622571
1.560832,-1.921,-1.846,0.309726,-2.72768781836
1.565568,-1.843,-1.976,0.307836,-2.73082941101
1.570368,-1.725,-1.69,0.305604,-2.73475640182
1.575104,-1.576,-1.898,0.302976,-2.7394687908
1.579904,-1.443,-1.456,0.300096,-2.74418117977
1.58464,-1.247,-1.222,0.296802,-2.7520351614
1.58944,-1.027,-1.43,0.2934,-2.75988914303
1.59424,-0.807,-1.28,0.289728,-2.76695772649
1.598912,-0.556,-0.728,0.285984,-2.77481170811
1.60352,-0.337,-0.442,0.282186,-2.78580728239
1.608128,-0.07,-0.364,0.278352,-2.79209046769
1.612608,0.141,-0.13,0.274626,-2.80151524564
1.617152,0.407,0.078,0.270882,-2.81015462543
1.62144,0.603,0.364,0.267408,-2.81879400521
1.62592,0.854,0.546,0.26397,-2.82821878316
1.630336,1.043,0.806,0.26073,-2.83450196846
1.634816,1.207,0.962,0.257652,-2.84392674641
1.63936,1.427,1.092,0.254808,-2.85020993171
1.643968,1.584,1.352,0.252288,-2.85727851517
1.648512,1.709,1.586,0.250146,-2.86277630231
1.65312,1.843,1.508,0.248328,-2.86984488578
1.657728,1.913,1.794,0.246978,-2.87455727475
1.662336,1.968,1.872,0.246042,-2.87848426556
1.666944,1.992,1.768,0.245574,-2.88084046005
1.671552,1.992,1.924,0.245502,-2.88476745086
1.676096,1.945,1.742,0.245844,-2.88712364535
1.680704,1.882,1.82,0.2466,-2.88633824719
1.685312,1.78,1.794,0.247626,-2.88790904351
1.68992,1.631,1.82,0.24903,-2.88790904351
1.694528,1.513,1.508,0.25074,-2.88633824719
1.699136,1.301,1.378,0.252684,-2.88633824719
1.703744,1.129,1.28,0.25488,-2.88241125638
1.708288,0.894,1.04,0.257238,-2.88162585821
1.712832,0.69,0.962,0.259704,-2.88084046005
1.717248,0.431,0.598,0.262206,-2.87691346924
1.721664,0.219,0.52,0.26478,-2.87612807108
1.72608,-0.047,0.208,0.267282,-2.87534267291
1.73056,-0.266,0.0,0.26982,-2.8714156821
1.734912,-0.556,-0.208,0.272232,-2.86984488578
1.739456,-0.76,-0.468,0.274572,-2.8714156821
1.744064,-1.003,-0.754,0.276804,-2.86984488578
1.7488,-1.184,-0.91,0.278766,-2.86984488578
1.753472,-1.411,-1.04,0.28044,-2.8714156821
1.758208,-1.576,-1.248,0.281772,-2.87298647843
1.763008,-1.749,-1.482,0.28269,-2.87612807108
1.767744,-1.843,-1.638,0.283212,-2.87926966373
1.772544,-1.929,-1.664,0.283266,-2.88476745086
1.77728,-1.984,-1.846,0.282906,-2.89105063616
1.78208,-1.992,-1.82,0.282114,-2.89811921963
1.786816,-1.976,-1.846,0.280926,-2.90597320125
1.791616,-1.921,-2.304,0.279234,-2.91696877553
1.796416,-1.827,-1.69,0.2772,-2.92639355348
1.801152,-1.701,-1.872,0.274752,-2.93738912775
1.805952,-1.529,-1.534,0.27198,-2.94995549835
1.810688,-1.356,-1.404,0.268866,-2.96330726711
1.815488,-1.145,-1.508,0.265482,-2.97665903588
1.820224,-0.894,-1.024,0.261882,-2.9907962028
1.82496,-0.643,-0.728,0.258174,-3.00493336973
1.829504,-0.407,-0.598,0.254394,-3.01985593481
1.834112,-0.164,-0.546,0.250542,-3.0347784999
1.83872,0.07,-0.208,0.246744,-3.04891566683
1.843136,0.36,0.052,0.243054,-3.06697982456
1.847488,0.603,0.208,0.239544,-3.08033159332
1.851904,0.784,0.52,0.236106,-3.09289796393
1.856384,1.066,0.702,0.23283,-3.1038935382
1.860864,1.247,0.91,0.229752,-3.11960150145
1.865408,1.458,1.222,0.22698,-3.1290262794
1.870016,1.647,1.28,0.22446,-3.14237804816
1.87456,1.756,1.534,0.222372,-3.1541590206
1.879168,1.882,1.638,0.220716,-3.16201300223
1.883776,1.945,1.716,0.219474,-3.17222317834
1.888384,1.992,1.794,0.218736,-3.1792917618
1.892992,1.992,1.924,0.218466,-3.18714574342
1.8976,1.96,1.82,0.218664,-3.19264353056
1.902144,1.898,1.82,0.219276,-3.19735591954
1.906752,1.803,1.898,0.220338,-3.20128291035
1.91136,1.662,1.716,0.22167,-3.20599529933
1.915968,1.474,1.482,0.223416,-3.20599529933
1.920576,1.301,1.482,0.225342,-3.20913689198
1.925184,1.09,1.17,0.22752,-3.21149308646
1.929728,0.87,1.17,0.230004,-3.20913689198
1.934272,0.619,0.832,0.23247,-3.21149308646
1.938688,0.384,0.624,0.235026,-3.21306388279
1.943104,0.07,0.338,0.23769,-3.20992229014
1.947456,-0.164,0.156,0.240228,-3.21149308646
1.952,-0.431,-0.13,0.242802,-3.21227848463
1.956608,-0.666,-0.312,0.245376,-3.20992229014
1.961152,-0.941,-0.624,0.247752,-3.2107076883
1.96576,-1.145,-0.858,0.249876,-3.21306388279
1.970496,-1.372,-1.144,0.251838,-3.21227848463
1.975232,-1.576,-1.3,0.253422,-3.2169908736
1.980032,-1.749,-1.534,0.254646,-3.22013246625
1.984768,-1.843,-1.586,0.255474,-3.22248866074
1.989568,-1.945,-1.742,0.255816,-3.2295572442
1.994304,-1.984,-2.048,0.255744,-3.23426963318
1.999104,-1.992,-1.82,0.25524,-3.23976742031
2.00384,-1.96,-1.82,0.254304,-3.24997759642
2.00864,-1.89,-1.872,0.252954,-3.25704617989
2.01344,-1.772,-1.924,0.251244,-3.26804175416
2.018176,-1.615,-1.612,0.249102,-3.27825193028
